4.0001,399.865455768584
4.0297,360.040363269425
4.0593,376.914199192463
4.0889,357.188361923983
4.1185,348.124117053481
4.1482,341.101278600269
4.1778,361.604439959637
4.2074,341.487386478305
4.237,313.763122476447
4.2666,321.715438950555
4.2962,339.352169525732
4.3258,314.08980827447
4.3554,315.866756393001
4.385,310.29263370333
4.4147,304.298688193744
4.4443,267.099596231494
4.4739,294.196098217289
4.5035,274.438950554995
4.5331,299.134589502019
4.5627,284.277497477296
4.5923,307.041035990582
4.6219,251.923283983849
4.6515,303.807265388497
4.6812,277.881937436932
4.7108,260.421265141319
4.7404,280.763874873865
4.77,247.80423814329
4.7996,263.757820383451
4.8292,246.331763122477
4.8588,240.441305079045
4.8884,243.541204170871
4.918,265.149394347241
4.9477,265.359233097881
4.9773,262.372351160444
5.0069,235.845895020188
5.0365,243.277161116717
5.0661,246.726202489068
5.0957,252.154104979812
5.1253,230.778002018163
5.1549,225.299360914901
5.1845,223.307537012113
5.2142,217.0830810629
5.2438,245.431550622267
5.2734,230.079744279946
5.303,236.822401614531
5.3326,213.328287924655
5.3622,213.766229397915
5.3918,221.557200538358
5.4214,206.693239152371
5.451,208.676757484023
5.4807,218.102288021534
5.5103,198.240161453078
5.5399,196.206189034645
5.5695,193.810228802153
5.5991,206.483350151362
5.6287,205.267406659939
5.6583,218.908479138627
5.6879,199.589303733603
5.7175,191.448032290616
5.7471,222.6467025572
5.7768,223.519677093845
5.8064,204.135553313152
5.836,211.957282206525
5.8656,203.112718707941
5.8952,226.890010090818
5.9248,218.763538513287
5.9544,196.603633916554
5.984,202.856037672385
6.0136,204.790110998991
6.0433,213.566285329744
6.0729,191.394550958628
6.1025,198.72586612849
6.1321,205
6.1617,202.843592330979
6.1913,212.716448032291
6.2209,212.027927321669
6.2505,216.354187689203
6.2801,208.475277497477
6.3098,206.803499327053
6.3394,197.550958627649
6.369,188.15438950555
6.3986,187.375714766229
6.4282,185.265141318977
6.4578,181.961654894046
6.4874,178.299697275479
6.517,193.773216689098
6.5466,185.333333333333
6.5763,170.34342415069
6.6059,177.584118438762
6.6355,174.455768583922
6.6651,195.462159434914
6.6947,197.971736204576
6.7243,175.888328287925
6.7539,183.00235452405
6.7835,178.009421265142
6.8131,170.631685166498
6.8428,196.227043390514
6.8724,203.484359233098
6.902,186.557200538358
6.9316,182.70736629667
6.9612,172.116044399596
6.9908,165.218707940781
7.0204,178.70736629667
7.05,182.194080053818
7.0796,198.090174966352
7.1093,200.87319206189
7.1389,186.312815338042
7.1685,176.8899730821
7.1981,189.738647830474
7.2277,185.957954927683
7.2573,182.46668909825
7.2869,175.457114026236
7.3165,175.617894382778
7.3461,187.492597577389
7.3758,188.196434577867
7.4054,196.014127144299
7.435,188.544904137235
7.4646,175.452220726783
7.4942,197.28590649176
7.5238,204.137907837202
7.5534,190.790040376851
7.583,194.900100908173
7.6126,209.422468886647
7.6423,198.079407806191
7.6719,183.085435586949
7.7015,191.203834510595
7.7311,200.076716016151
7.7607,202.491422805247
7.7903,217.630339724184
7.8199,211
7.8495,200.40329633367
7.8791,198.731584258325
7.9088,190.394550958627
7.9384,201.348250336474
7.968,201.215943491423
7.9976,191.178943827783
8.0272,188.893674293405
8.0568,192.876892028254
8.0864,207.086108308106
8.116,214.551144010767
8.1456,192.850319542549
8.1753,196.039017827111
8.2049,218.195154777927
8.2345,207.506559031282
8.2641,190.802892700975
8.2937,185.630551816958
8.3233,200.724520686176
8.3529,226.316851664985
8.3825,234.041049798116
8.4121,230.214598049109
8.4418,238.943155062227
8.4714,238.423141607803
8.501,227.881561238223
8.5306,223.630676084763
8.5602,226.40329633367
8.5898,232.187752355317
8.6194,238.420450723175
8.649,228.580221997982
8.6786,232.450874831764
8.7082,253.178943827784
8.7379,267.198116380759
8.7675,283.041722745626
8.7971,264.317188025564
8.8267,264.899091826437
8.8563,253.926648721399
8.8859,269.202825428859
8.9155,250.355533131517
8.9451,256.618567103935
8.9747,265.265477792732
9.0044,282.420787083753
9.034,305.96333669694
9.0636,278.012449528937
9.0932,276.666666666667
9.1228,260.789101917255
9.1524,260.183041722745
9.182,292.55062226707
9.2116,293.647157753111
9.2412,298.230484522206
9.2709,259.823074335687
9.3005,291.214934409687
9.3301,290.900403768506
9.3597,281.199461823075
9.3893,331.349478641103
9.4189,339.439771197847
9.4485,318.284561049445
9.4781,321.469223007064
9.5077,320.536495122771
9.5374,336.93135935397
9.567,342
9.5966,336.91927346115
9.6262,318.790040376851
9.6558,313.215943491423
9.6854,337.874873864783
9.715,359.251682368775
9.7446,361.768920282543
9.7742,350.744702320888
9.8039,332.336473755047
9.8335,348.367978472923
9.8631,356.464850319543
9.8927,364.843876177658
9.9223,383.743693239152
9.9519,363.069626639757
9.9815,341.784729229734
10.0111,361.885935397041
10.0407,429.450050454087
10.0704,397.234106962664
10.1,414.287012113057
10.1296,353.433232425159
10.1592,364.430877901108
10.1888,438.899057873484
10.2184,380.832492431887
10.248,408.83652875883
10.2776,401.991588156124
10.3072,416.687521022536
10.3369,419.145644130508
10.3665,412.668236877523
10.3961,404.249243188698
10.4257,421.948536831483
10.4553,423.002018842529
10.4849,407.885301042718
10.5145,444.82038345106
10.5441,430.449714093508
10.5737,419.633916554509
10.6034,415.756138580558
10.633,440.870837537841
10.6626,408.399057873486
10.6922,419.354187689203
10.7218,424.96300033636
10.7514,403.923283983849
10.781,468.366296670031
10.8106,432.165489404642
10.8402,441.085464333782
10.8699,432.899091826438
10.8995,433.83417423478
10.9291,450.170255720054
10.9587,442.616885301043
10.9883,445.39858728557
11.0179,406.158762193071
11.0475,410.401076716016
11.0771,438.58055835856
11.1067,421.864783047428
11.1364,448
11.166,449.415741675076
11.1956,468.712748065927
11.2252,433.271534320322
11.2548,473.170871173899
11.2844,454.824419778002
11.314,409.201211305518
11.3436,440.19542549613
11.3732,498.019845274134
11.4029,467.448855989233
11.4325,450.690884628322
11.4621,475.933400605449
11.4917,472.625504710632
11.5213,452.344769593003
11.5509,476.802219979818
11.5805,455.989909182644
11.6101,453.988559892328
11.6397,437.057200538358
11.6693,456.845274133871
11.699,484.755129498823
11.7286,474.14064602961
11.7582,458.274470232089
11.7878,426.688866464851
11.8174,442.565275908479
11.847,470.161789438277
11.8766,458.446014127144
11.9062,479.156123822341
11.9358,432.13588967373
11.9655,466.338378742011
11.9951,473.7133243607
12.0247,441.772620248906
12.0543,425.847628657921
12.0839,495.433905146317
12.1135,474.75336473755
12.1431,464.623612512613
12.1727,447.325933400605
12.2023,447.844549125168
12.232,506.962663975781
12.2616,493.661621257989
12.2912,470.091520861373
12.3208,511.608476286579
12.3504,506.958627648839
12.38,505.099932705249
12.4096,501.41708711739
12.4392,514.370332996973
12.4688,494.705248990578
12.4985,531.883955600403
12.5281,484.083753784057
12.5577,509.480820995963
12.5873,491.288261015808
12.6169,477.570131180626
12.6465,451.786074672049
12.6761,461.771197846568
12.7057,447.728893373697
12.7353,454.372014799865
12.765,417.692462987888
12.7946,397.448705011773
12.8242,419.434914228053
12.8538,392.975773889636
12.8834,448.728893373696
12.913,413.701311806255
12.9426,453.542395693137
12.9722,431.965691220989
13.0018,444.608476286579
13.0315,426.14401076716
13.0611,430.743693239152
13.0907,438.653212243525
13.1203,415.90312815338
13.1499,420.388627187079
13.1795,453.20316178944
13.2091,416.734947864112
13.2387,451.394010767159
13.2683,429.590312815337
13.298,428.591321897074
13.3276,440.323014804845
13.3572,418.276152034982
13.3868,414.841237806929
13.4164,423.64131897712
13.446,422.200807265389
13.4756,411.934409687185
13.5052,410.50269179004
13.5348,422.205852674067
13.5645,411.82509249916
13.5941,400.32267833109
13.6237,403.901109989909
13.6533,422.131853346788
13.6829,377.706357214933
13.7125,390.889636608345
13.7421,399.397578203835
13.7717,396.567776656576
13.8013,430.886944818304
13.831,425.090144635049
13.8606,370.358224016145
13.8902,381.912516823689
13.9198,397.793138244198
13.9494,396.224352505886
13.979,380.514804845223
14.0086,404.847628657922
14.0382,406.739656912211
14.0678,417.92462987887
14.0975,421.943491422805
14.1271,371.63673057518
14.1567,360.683714670255
14.1863,372.30642448705
14.2159,373.023208879919
14.2455,389.01849983182
14.2751,376.536675639301
14.3047,375.984527413387
14.3343,381.358224016145
14.364,391.255720053836
14.3936,395.726538849647
14.4232,382.985200134545
14.4528,377.884589502019
14.4824,410.197443659603
14.512,417.847628657921
14.5416,427.00067294751
14.5712,413.775647494113
14.6008,398.393205516313
14.6304,391.371130551817
14.6601,395.424487050118
14.6897,372.325933400606
14.7193,359.52304069963
14.7489,397.563257065948
14.7785,397.616212579884
14.8081,387.3824419778
14.8377,406.401076716016
14.8673,411.281870164817
14.8969,410.972082071981
14.9266,403.234185733513
14.9562,377.003363605785
14.9858,380.856710393542
15.0154,398.323014804845
15.045,390.557349478642
15.0746,391.814328960645
15.1042,379.981157469718
15.1338,373.199798183653
15.1634,380.935082408342
15.1931,382.126514131898
15.2227,376.616212579886
15.2523,363.20047090481
15.2819,352.850655903129
15.3115,354.659152086138
15.3411,354.3871510259
15.3707,369.235452404977
15.4003,379.969717362046
15.4299,378.462159434914
15.4596,361.176589303733
15.4892,343.876177658143
15.5188,347.607467204843
15.5484,344.934746047763
15.578,346.041049798116
15.6076,337.395560040363
15.6372,336.063572149344
15.6668,361.734185733514
15.6964,369.512613521695
15.7261,364.229734275144
15.7557,363.11503531786
15.7853,344.018169582772
15.8149,359.986545576857
15.8445,375.003027245206
15.8741,353.838492597577
15.9037,351.667003027246
15.9333,348.211234443323
15.9629,345.110363391655
15.9926,368.53010427178
16.0222,376.622939791457
16.0518,374.92530282638
16.0814,363.278506559031
16.111,357.783383787419
16.1406,357.288021534318
16.1702,327.014127144299
16.1998,330.844601412714
16.2294,325.746298788694
16.2591,347.618567103936
16.2887,365.708375378406
16.3183,355.593340060545
16.3479,360.728802153432
16.3775,355.502522704339
16.4071,350.41002354524
16.4367,353.68068640646
16.4663,365.915237134208
16.4959,357.570131180626
16.5256,354.908142664871
16.5552,359.026236125127
16.5848,340.130171543895
16.6144,338.785666218035
16.644,334.502859064918
16.6736,338.929364278508
16.7032,319.268842530283
16.7328,336.653212243525
16.7624,335.422132526068
16.7921,342.206525395225
16.8217,361.660834454913
16.8513,343.307769929364
16.8809,340.094180961991
16.9105,345.049798115747
16.9401,325.400605449042
16.9697,335.043390514631
16.9993,328
17.0289,325.41473259334
17.0586,316.710057181298
17.0882,322.560565275907
17.1178,354.500504540868
17.1474,364.554994954591
17.177,360.810228802155
17.2066,328.445677766565
17.2362,338.521358896737
17.2658,335.128532974428
17.2954,316.711402623613
17.3251,306.010090817356
17.3547,326.072653884967
17.3843,372.881561238224
17.4139,371.883619239824
17.4435,331.638748738648
17.4731,327.807537012112
17.5027,303.319542549614
17.5323,328.541204170872
17.5619,343.170255720054
17.5915,340.992936427849
17.6212,308.450050454086
17.6508,324.169582772544
17.6804,314.488059199463
17.71,301.94315506223
17.7396,354.584454912517
17.7692,352.041372351161
17.7988,331.372687521022
17.8284,326.631012445342
17.858,304.040376850605
17.8877,328.107635385133
17.9173,313.796165489405
17.9469,331.158815612382
17.9765,321.911537167845
18.0061,305.746047763205
18.0357,351.559219380888
18.0653,323.816347124117
18.0949,326.94450050454
18.1245,290.137281292059
18.1542,314.858055835856
18.1838,314.137571476623
18.2134,316.332436069987
18.243,325.387487386478
18.2726,331.743693239151
18.3022,358.361372812921
18.3318,355.762865792131
18.3614,319.696266397577
18.391,346.524386141945
18.4207,325.25336473755
18.4503,317.461150353178
18.4799,304.491086444668
18.5095,310.595895020188
18.5391,323.844601412714
18.5687,304.648503195427
18.5983,329.837483176311
18.6279,296.1567440296
18.6575,322.217961654894
18.6872,324.4266487214
18.7168,317.067608476287
18.7464,319.13824419778
18.776,335.175639300135
18.8056,320.629330642448
18.8352,296.949545913219
18.8648,298.16582576522
18.8944,341.956931359354
18.924,318.941809619913
18.9537,341.276824756138
18.9833,296.839838492597
19.0129,321.293642785066
19.0425,297.501513622603
19.0721,318.039030955585
19.1017,319.628657921292
19.1313,296.12209889001
19.1609,307.29609690444
19.1905,350.93541876892
19.2202,326.952909519004
19.2498,299.075344769593
19.2794,341.71063257066
19.309,345.955600403633
19.3386,343.046417759839
19.3682,304.761103633917
19.3978,277.644803229063
19.4274,335.304742684156
19.457,343.771611167171
19.4867,337.233176312248
19.5163,298.506895391859
19.5459,336.27615203498
19.5755,332.276581426649
19.6051,303.513622603429
19.6347,296.328960645812
19.6643,296
19.6939,331.597040026908
19.7235,306.96064581231
19.7532,291.024562584119
19.7828,324.311806256308
19.8124,328.845946855029
19.842,294.081426648722
19.8716,300.145644130508
19.9012,320.114026236124
19.9308,324.717457114026
19.9604,333.115746971736
19.99,289.129498822735
20.0197,335.094853683148
20.0493,298.168236877525
20.0789,319.639757820384
20.1085,319.465523040699
20.1381,331.313593539704
20.1677,333
20.1973,326.033299697276
20.2269,317.199192462988
20.2565,324.62428523377
20.2862,345.812647157753
20.3158,362.717362045761
20.3454,319.790447359567
20.375,305.210898082745
20.4046,305.689098250336
20.4342,314.402287251934
20.4638,300.118735284224
20.4934,319.450050454086
20.523,296.696164199191
20.5526,301.699966363942
20.5823,315.50891355533
20.6119,335.995289367429
20.6415,323.726875210226
20.6711,311.907164480323
20.7007,326.908815612382
20.7303,355.026236125125
20.7599,380.116044399596
20.7895,430.166554508751
20.8191,475.099899091828
20.8488,534.373360242179
20.8784,476.749327052488
20.908,411.058190380091
20.9376,375.545240497814
20.9672,364.380423814329
20.9968,337.728129205921
21.0264,315.531113353515
21.056,326.900100908173
21.0856,331.246971736204
21.1153,312.949545913218
21.1449,333.170534813321
21.1745,336.051144010767
21.2041,320.692230070636
21.2337,316
21.2633,308.691790040377
21.2929,318.351160443995
21.3225,308.556676757483
21.3521,323.104979811573
21.3818,315.22334342415
21.4114,313.989236461487
21.441,320.960296096905
21.4706,321.591321897074
21.5002,323.799865455769
21.5298,315.261688530105
21.5594,296.479475100942
21.589,295.497477295661
21.6186,306.19374369324
21.6483,322.958613728129
21.6779,312.733602421796
21.7075,325.201816347126
21.7371,332.992261103634
21.7667,332
21.7963,320.769593003699
21.8259,331.411507402422
21.8555,334.130171543895
21.8851,352.378405650856
21.9148,351.059219380889
21.9444,344.64278506559
21.974,355.214598049108
22.0036,347.685166498486
22.0332,368.974427994614
22.0628,375.364278506559
22.0924,355.953582240161
22.122,348
22.1516,344.935755129499
22.1813,353.401278170198
22.2109,355.746298788695
22.2405,354.206861755802
22.2701,335.231079717457
22.2997,327.948855989233
22.3293,327.865455768584
22.3589,323.241170534813
22.3885,354.015477792734
22.4181,345.217288933737
22.4478,329.499159098554
22.4774,343.590174966352
22.507,355.116044399596
22.5366,352.795156407669
22.5662,397.813656239488
22.5958,406.446500672951
22.6254,382
22.655,404.423814328961
22.6846,420.829071332436
22.7143,416.832492431887
22.7439,454.237806929026
22.7735,529.064939434727
22.8031,565
22.8327,650.005045408685
22.8623,775.929340511439
22.8919,976.926673393881
22.9215,1338.52707702656
22.9511,1907.0333109018
22.9808,2943.815674403
23.0104,4775.8526740665
23.04,6955.19273461155
23.0696,7722.75235531627
23.0992,6844.70063908513
23.1288,5188.87285570137
23.1584,3369.71601615077
23.188,2123.02690884627
23.2176,1368.74840228724
23.2473,986.407133243605
23.2769,810.076690211903
23.3065,686.36730575177
23.3361,603.839838492596
23.3657,561.176252943155
23.3953,519.076017490752
23.4249,486.338492597577
23.4545,464.133198789102
23.4841,431.811974436596
23.5137,422.932705248991
23.5434,403.320887991927
23.573,394.850992263708
23.6026,393.404641775983
23.6322,395.783310901749
23.6618,405.707029936091
23.6914,390.699293642785
23.721,394.779609690444
23.7506,389.779011099899
23.7802,394.956273124789
23.8099,415.96063257066
23.8395,417.529095190043
23.8691,427.774638412379
23.8987,465.845895020188
23.9283,494.064581231082
23.9579,569.485368314835
23.9875,689.655114401073
24.0171,909.204170871183
24.0467,1400.08879919269
24.0764,2523.99697275482
24.106,4758.50471063278
24.1356,6740.33871510259
24.1652,6114.28119744375
24.1948,4475.38829071336
24.2244,3034.82845610487
24.254,1498.61217625297
24.2836,862.934051144022
24.3132,639.706693575512
24.3429,560.217625294319
24.3725,494.154777927322
24.4021,469.01311806256
24.4317,436.37100571813
24.4613,417.316958277251
24.4909,380.142616885301
24.5205,386.508577194753
24.5501,393.866756393001
24.5797,384.521695257316
24.6094,339.707702657249
24.639,338.136226034309
24.6686,334.014468371467
24.6982,326.763874873864
24.7278,320.174571140262
24.7574,322.60464333782
24.787,343.535486041034
24.8166,364.638748738647
24.8462,357.741924629879
24.8759,347.993945509587
24.9055,334.900100908176
24.9351,364.297106325708
24.9647,335.310124453414
24.9943,325.078708375378
25.0239,318.292395693136
25.0535,322.025563403969
25.0831,336.31550622267
25.1127,317.446014127144
25.1424,325.440107671601
25.172,351.705348133199
25.2016,361.155398587285
25.2312,347
25.2608,352.334678775649
25.2904,370.991927346115
25.32,361.820995962315
25.3496,355.268415741675
25.3792,346.871846619576
25.4089,344.9932705249
25.4385,352.693575512951
25.4681,328.464177598386
25.4977,324.779946164199
25.5273,319.170198452741
25.5569,325.472250252271
25.5865,351.061911170929
25.6161,335.01816347124
25.6457,306.21392532795
25.6754,324.304069963
25.705,321.568640646031
25.7346,302.606794483687
25.7642,336.569122098887
25.7938,304.214333781965
25.8234,313.83181971073
25.853,326.632357887655
25.8826,328.55720053836
25.9122,309.347124117054
25.9419,296.297679112008
25.9715,293.592530282637
26.0011,312.478977463841
26.0307,302.815338042382
26.0603,327.099932705249
26.0899,325.124117053482
26.1195,301.202152707704
26.1491,334.306760847628
26.1787,347.668909825034
26.2084,345.231079717458
26.238,357.601412714429
26.2676,340.633243606999
26.2972,335.584258324924
26.3268,336.167171207535
26.3564,422.456258411843
26.386,386.955600403629
26.4156,458.995627312481
26.4452,571.726783310896
26.4748,652.121762529435
26.5045,787.58055835856
26.5341,823.306864064603
26.5637,837.655903128167
26.5933,1042.03363605784
26.6229,1584.74293405112
26.6525,1227.80221997982
26.6821,1035.11301715439
26.7117,922.462495795499
26.7413,571.066285329748
26.771,460.938109653549
26.8006,453.141271442985
26.8302,494.957618567103
26.8598,428.33815612382
26.8894,403.23545240498
26.919,426.669021190716
26.9486,386.731157469721
26.9782,354.710393541876
27.0078,361.787420114362
27.0375,355.190780619112
27.0671,378.241170534814
27.0967,366.467877564749
27.1263,384.239232839838
27.1559,340.086781029265
27.1855,343.70736629667
27.2151,356.309115371679
27.2447,397.540376850602
27.2743,387.800201816347
27.304,341.065590312818
27.3336,372.534993270527
27.3632,368.496804574503
27.3928,340.260343087791
27.4224,379.426648721398
27.452,413.236125126135
27.4816,444.268079381098
27.5112,433.382907133243
27.5408,395.86141944164
27.5705,435.317860746723
27.6001,419.337146702558
27.6297,403.589303733602
27.6593,403.779347460478
27.6889,447.394347240915
27.7185,427.443323242514
27.7481,433.645812310797
27.7777,458.558022199797
27.8073,464.60531628533
27.837,488.421796165489
27.8666,488.547595021863
27.8962,516.347577388962
27.9258,531.256306760847
27.9554,523.646485031954
27.985,560.080417227456
28.0146,624.249915909856
28.0442,649.238143289607
28.0738,694.505720053835
28.1035,872.828456104949
28.1331,1075.10830810629
28.1627,1117.41621803499
28.1923,1039.48805919947
28.2219,871.977800201811
28.2515,807.183316515306
28.2811,704.79004037685
28.3107,704.471577531115
28.3403,721.174571140263
28.37,744.733512786002
28.3996,698.446014127144
28.4292,665.280861083083
28.4588,676.477792732168
28.4884,689.583921964345
28.518,684.240161453078
28.5476,707.471736204578
28.5772,711.162125798857
28.6068,684.814328960645
28.6365,731.133916554503
28.6661,737.385805583586
28.6957,756.613521695256
28.7253,776.744279946164
28.7549,807.088126471581
28.7845,796.733938782374
28.8141,855.560040363263
28.8437,932.472745625841
28.8733,925.78405650858
28.903,988.721157080384
28.9326,1094.09286675639
28.9622,1166.40935082408
28.9918,1265.87386478305
29.0214,1371.45020188425
29.051,1569.0329633367
29.0806,1810.90380087453
29.1102,2128.82604306863
29.1398,2642.62462159439
29.1695,3318.63673057512
29.1991,4390.16588156118
29.2287,6240.74470232076
29.2583,8986.92028254284
29.2879,13720.4712411705
29.3175,22184.6123822335
29.3471,39248.9999999983
29.3767,68307.3696602748
29.4063,90679.9084791387
29.4359,84728.113017153
29.4656,71639.936427851
29.4952,56358.3458950192
29.5248,35929.0413723511
29.5544,20511.879246553
29.584,12314.1816958273
29.6136,8004.8627648838
29.6432,5654.15472586604
29.6728,4211.26514131897
29.7024,3280.87117389847
29.7321,2647.21493440967
29.7617,2257.86002691792
29.7913,1987.31483350149
29.8209,1757.92633703329
29.8505,1587.89270097545
29.8801,1499.57503364737
29.9097,1358.7568113017
29.9393,1219.55600403633
29.9689,1144.9730820996
29.9986,1064.62327615203
30.0282,1009.95795492768
30.0578,958.794751009419
30.0874,905.054490413722
30.117,906.801547258658
30.1466,892.236541049796
30.1762,835.001681802892
30.2058,779.798183652875
30.2354,749.865746971736
30.2651,724.822401614529
30.2947,736.177934746046
30.3243,732.5798856374
30.3539,686.995289367427
30.3835,668.592330978809
30.4131,663.156744029599
30.4427,643.944818304171
30.4723,652.71981163808
30.5019,648.886982845611
30.5316,615.205921938089
30.5612,616.71442986882
30.5908,619.420114362596
30.6204,582.000000000001
30.65,584.739320551632
30.6796,617.474268415742
30.7092,611.691790040376
30.7388,588.06054490414
30.7684,594.453414059872
30.7981,593.243606998654
30.8277,581.049445005048
30.8573,615.484359233096
30.8869,617.195089135556
30.9165,595.314939434723
30.9461,586.43558694921
30.9757,593.657921291625
31.0053,574.963660834451
31.0349,536.105617221661
31.0646,548.410359905821
31.0942,548.477792732167
31.1238,536.736966027582
31.1534,572.099899091822
31.183,604.933378196501
31.2126,596.321897073664
31.2422,635.447359569457
31.2718,696.991251682368
31.3014,793.066599394541
31.3311,968.011099899099
31.3607,1222.99327278841
31.3903,1692.40174966353
31.4199,2290.79313824425
31.4495,2635.88698284561
31.4791,2514.62449528934
31.5087,2179.95358224018
31.5383,1862.99428187016
31.5679,1465.18438761776
31.5976,1073.17524386142
31.6272,836.962663975779
31.6568,728.160834454911
31.6864,696.640094180962
31.716,681.067608476287
31.7456,629.76177658143
31.7752,561.048435923306
31.8048,513.600739993273
31.8344,491.736877523555
31.8641,450.232761520351
31.8937,437
31.9233,444.289606458123
31.9529,457.818640646029
31.9825,476.487722838884
32.0121,485.683821056172
32.0417,475.954576043069
32.0713,465.540867810291
32.1009,472.13353514968
32.1306,426.505383580084
32.1602,395.524722502524
32.1898,385.293979145644
32.2194,398.167563930011
32.249,415.149344096871
32.2786,385.811974436595
32.3082,386.907806191116
32.3378,379.183652875882
32.3674,410.662966700301
32.397,440.696602758157
32.4267,452.841857335128
32.4563,449.971072990248
32.4859,432.0924991591
32.5155,446.49932705249
32.5451,432.442986881939
32.5747,404.882946518669
32.6043,435.911843876178
32.6339,423.198789101918
32.6635,425.453077699294
32.6932,453.962314939434
32.7228,432.096871846619
32.7524,477.075008409014
32.782,499.197846567965
32.8116,558.377396569119
32.8412,627
32.8708,640.773889636603
32.9004,715.837537840563
32.93,848.325933400577
32.9597,1099.77766565757
32.9893,1404.49327052486
33.0189,1965.2411705348
33.0485,3052.70837537827
33.0781,5683.29138627146
33.1077,11808.2993609143
33.1373,19632.2320887992
33.1669,18722.1194481831
33.1965,12851.0669357551
33.2262,12244.7904473597
33.2558,8961.62685060549
33.2854,4297.29229734271
33.315,2211.42078708379
33.3446,1501.22341857338
33.3742,1108.11436259672
33.4038,906.386141944153
33.4334,763.385598923282
33.463,661.269424823411
33.4927,641.384460141272
33.5223,625.007736293306
33.5519,534.627187079409
33.5815,516.387487386473
33.6111,457.542885973763
33.6407,475.138627187077
33.6703,440.317188025564
33.6999,433.347796838211
33.7295,431.352624495292
33.7592,470.976791120083
33.7888,415.314833501517
33.8184,376.032301480484
33.848,390.260343087787
33.8776,413.883619239832
33.9072,361.865410497983
33.9368,388.187689202826
33.9664,392.105617221661
33.996,411.183989236462
34.0257,432.581090174966
34.0553,445.389841910527
34.0849,491.15640766902
34.1145,471.478465679678
34.1441,434.928018836193
34.1737,432.367642112346
34.2033,412.75471063257
34.2329,403.721493440969
34.2625,392.075344769593
34.2922,396.731157469716
34.3218,436.889673730239
34.3514,428.952909519004
34.381,424.07065948856
34.4106,437.995963673058
34.4402,434.013454423142
34.4698,432.015472586613
34.4994,432
34.529,393.629667003025
34.5587,412.656912209889
34.5883,401.258324924319
34.6179,392.230148048452
34.6475,400.730575176589
34.6771,385.548940464177
34.7067,417.69582772544
34.7363,405.598049108643
34.7659,406.905819038009
34.7955,382.329744279945
34.8252,413.227379751093
34.8548,415.943491422805
34.8844,445.122476446835
34.914,422.687857383113
34.9436,372.603094517319
34.9732,451.471736204581
35.0028,431.253279515641
35.0324,415.231079717457
35.062,469.72687521022
35.0917,441.224427994614
35.1213,436.182980154726
35.1509,496.577194752777
35.1805,462.496971736207
35.2101,504.577867473936
35.2397,514.456777665657
35.2693,540.731157469714
35.2989,574.020181634715
35.3285,626.321560713082
35.3581,711.704576043072
35.3878,770.170534813323
35.4174,835.233434241504
35.447,1028.26076716017
35.4766,1321.2492431887
35.5062,1793.8997645476
35.5358,2994.42934051145
35.5654,5900.94416414392
35.595,12000.2633703331
35.6246,14449.2105617221
35.6543,9931.20726783356
35.6839,8639.46081399265
35.7135,8558.53178607467
35.7431,5480.41722745657
35.7727,3029.68617558026
35.8023,2184.55398587283
35.8319,2094.38088829071
35.8615,2499.6881937437
35.8911,3279.40665993945
35.9208,4817.57335127852
35.9504,7180.55196770929
35.98,8811.49108644472
36.0096,8125.25975773897
36.0392,7085.30743356883
36.0688,6418.63572149347
36.0984,4980.85570131183
36.128,3444.12314939424
36.1576,2403.20719811634
36.1873,1742.03868146659
36.2169,1282.77220726786
36.2465,1027.99293642785
36.2761,836.216952573166
36.3057,775.724427994615
36.3353,657.447359569455
36.3649,626.426841574168
36.3945,564.745289367425
36.4241,521.44029599731
36.4538,507.400605449042
36.4834,494.792059219381
36.513,531.591994618224
36.5426,495.845610494453
36.5722,464.538358008077
36.6018,431.516986209219
36.6314,415.753784056508
36.661,418.219979818366
36.6906,413.707267833109
36.7203,417.284561049445
36.7499,415.836528758829
36.7795,381.580753701208
36.8091,359.459468550286
36.8387,353.275479313825
36.8683,343.876177658142
36.8979,344.036326942483
36.9275,350.010090817356
36.9571,341.372812920593
36.9868,325.3871510259
37.0164,372.055499495452
37.046,374.773216689097
37.0756,365.252606794484
37.1052,335.338715102591
37.1348,362.282542885977
37.1644,349.380551816955
37.194,337.500504540866
37.2236,343
37.2533,339.859017496635
37.2829,336.128153380424
37.3125,330.662966700303
37.3421,345.231493943474
37.3717,344.998990918263
37.4013,335.572822065254
37.4309,352.078734858684
37.4605,350.835519677095
37.4901,334.871846619576
37.5198,325.254374158816
37.5494,349.681466532123
37.579,359.061890346452
37.6086,329.363728129206
37.6382,346.418768920284
37.6678,387.582576522032
37.6974,378.4372687521
37.727,408.75033647375
37.7566,412.576185671041
37.7863,371.933400605449
37.8159,352.246298788696
37.8455,344.351160443996
37.8751,341.364278506559
37.9047,331.343203230148
37.9343,336.347124117054
37.9639,330.493777329299
37.9935,333.432705248989
38.0231,348.475950218634
38.0528,357.93777329297
38.0824,359.217362045759
38.112,346.853683148335
38.1416,351.694920955262
38.1712,363.023545240498
38.2008,363.996635262449
38.2304,339.618567103937
38.26,325.368987554659
38.2896,333.044414535666
38.3192,339.724520686175
38.3489,354.320551631348
38.3785,356.164199192463
38.4081,352
38.4377,367.539858728555
38.4673,376.132907133244
38.4969,366
38.5265,357.295660948536
38.5561,360.163189771201
38.5857,375.100571812983
38.6154,383.422805247225
38.645,397.222409152086
38.6746,385.029936091489
38.7042,381.257315842583
38.7338,404.883955600403
38.7634,418.973755047106
38.793,436.077699293642
38.8226,460.169525731584
38.8522,471.97846567968
38.8819,479.409687184668
38.9115,493.94180961991
38.9411,489.306864064605
38.9707,525.40094180962
39.0003,545.828456104946
39.0299,581.100269179004
39.0595,643.342415068967
39.0891,740.129835183319
39.1187,806.960969044412
39.1484,938.508913555344
39.178,1125.95156407669
39.2076,1422.31886982847
39.2372,1871.36978465684
39.2668,2541.17356205856
39.2964,3254.19475277492
39.326,4271.1487213997
39.3556,6277.95761856712
39.3852,9262.21863437589
39.4149,11725.3761776582
39.4445,11757.5311133534
39.4741,10235.0595358224
39.5037,9155.40847913866
39.5333,8129.27581567461
39.5629,6114.15506222689
39.5925,4251.32974428006
39.6221,2919.81331987895
39.6517,2121.4951227716
39.6814,1593.20962314939
39.711,1266.72754793139
39.7406,1083.69492095525
39.7702,936.607467204843
39.7998,814.10632570659
39.8294,723.540531449706
39.859,624.612848974095
39.8886,576.606998654105
39.9182,572.176589303734
39.9479,557.967709384463
39.9775,517.655450874832
40.0071,479.361923982502
40.0367,444.341742347794
40.0663,476.460969044412
40.0959,486.872855701313
40.1255,442.273124789774
40.1551,441.308209959625
40.1847,460.647157753111
40.2144,442.607130844263
40.244,428.364278506558
40.2736,458.770188425303
40.3032,452.131853346789
40.3328,437.311806256305
40.3624,455.131897711978
40.392,450.722502522704
40.4216,449.753784056508
40.4512,472.578061911171
40.4809,501.52304069963
40.5105,481.21224352506
40.5401,470.974091520862
40.5697,486.824419778006
40.5993,542.590312815341
40.6289,574.463324360699
40.6585,616.007063572153
40.6881,669.661957618567
40.7177,782.341520861375
40.7474,1015.76589303736
40.777,1518.07063572155
40.8066,2623.05045408673
40.8362,4258.20592193811
40.8658,4315.77093844608
40.8954,2843.965691221
40.925,2591.79004037683
40.9546,2791.36057854024
40.9842,2052.82341069632
41.0139,1221.37550471062
41.0435,801.471241170531
41.0731,708.015136226027
41.1027,638.254374158809
41.1323,587.487050117725
41.1619,575.551967709385
41.1915,567.477792732168
41.2211,531.968382105618
41.2507,551.579885637402
41.2803,570.257315842578
41.31,524.248990578734
41.3396,515.203834510595
41.3692,495.974772956609
41.3988,487.594885598926
41.4284,516.383787420115
41.458,506.965691220989
41.4876,479.497308209958
41.5172,461.505549949545
41.5468,496.862428523377
41.5765,480.413189771194
41.6061,500.752102253613
41.6357,463.009081735619
41.6653,480.939771197848
41.6949,458.915909855365
41.7245,457.263706693576
41.7541,463.467025572005
41.7837,448.351160443995
41.8133,460.12445341406
41.843,465.57315842583
41.8726,488.414535666221
41.9022,458.953582240161
41.9318,456.066599394551
41.9614,462.006729475101
41.991,462.956945845947
42.0206,447.026908846283
42.0502,459.921291624621
42.0798,440.201884253029
42.1095,455.822401614532
42.1391,480.613185334679
42.1687,464.331763122476
42.1983,510.853683148334
42.2279,455.638748738648
42.2575,483.030955585465
42.2871,474.366633030608
42.3167,492.220316178945
42.3463,501.591321897073
42.376,526.801480484526
42.4056,496.664984863774
42.4352,531.861755802218
42.4648,502.002018842531
42.4944,518.73528422469
42.524,500.419778002019
42.5536,501.784993270525
42.5832,510.315842583248
42.6128,521.115708039018
42.6425,524.756729475101
42.6721,560.66801210898
42.7017,561.26942482341
42.7313,624.428667563933
42.7609,604.84830137908
42.7905,602.897410023545
42.8201,650.346904441456
42.8497,688.004036326942
42.8793,741.539186007401
42.909,853.1506895392
42.9386,983.099596231486
42.9682,1135.53279515641
42.9978,1382.28859737639
43.0274,1786.10497981152
43.057,2483.78439286906
43.0866,3692.03397241833
43.1162,5654.67429340493
43.1458,9038.96972754756
43.1755,10934.182643794
43.2051,9706.32907133259
43.2347,7920.22737975088
43.2643,7371.21291624619
43.2939,6926.57604306866
43.3235,5169.76488395546
43.3531,3446.28893373704
43.3827,2413.34981500159
43.4123,1811.74360699866
43.442,1498.82206525394
43.4716,1383.63874873864
43.5012,1302.78028263795
43.5308,1072.36562394887
43.5604,908.286242852333
43.59,867.321668909827
43.6196,856.119071644803
43.6492,725.469895728212
43.6788,619.835127860022
43.7085,588.319878910193
43.7381,559.448032290613
43.7677,505.018506056526
43.7973,489.468213925328
43.8269,527.076017490754
43.8565,504.916890982504
43.8861,466.887991927346
43.9157,445.271442986882
43.9453,455.887319206189
43.975,416.383580080747
44.0046,417.265052135888
44.0342,428.144635048773
44.0638,416.845222072677
44.0934,425.804238143289
44.123,418.001009081736
44.1526,418.026244952893
44.1822,411.434914228051
44.2118,387.427850655906
44.2414,390.283983849261
44.2711,402.747729566096
44.3007,392.000672721156
44.3303,398.524899057875
44.3599,417.831146989573
44.3895,437.743693239152
44.4191,417.370332996969
44.4487,386.675975773887
44.4783,396.883282879245
44.5079,405.329969727548
44.5376,364.175975773893
44.5672,373.259334006048
44.5968,370.82408341742
44.6264,373.816285329744
44.656,382.608812647157
44.6856,378.169525731585
44.7152,390.448183041719
44.7448,406.033636057853
44.7744,403.014463504878
44.8041,410.416554508749
44.8337,407.549949545912
44.8633,425.148335015138
44.8929,453.915208613728
44.9225,429.052808610828
44.9521,396.355869492097
44.9817,411.513622603429
45.0113,405.4535666218
45.0409,396.800538176925
45.0706,392.212243525059
45.1002,408.415881561237
45.1298,404.09922637067
45.1594,393.931382441978
45.189,391.92530282638
45.2186,412.114698957285
45.2482,433.014463504878
45.2778,432.584118438762
45.3074,415.307769929361
45.3371,425.434914228055
45.3667,449.838492597578
45.3963,473.225697948203
45.4259,472.115035317861
45.4555,449.608476286579
45.4851,454.568304172277
45.5147,437.458795829126
45.5443,432.763202152709
45.5739,450
45.6036,434.127144298685
45.6332,436.266397578206
45.6628,432.26110363392
45.6924,416.032626976119
45.722,428.262697611841
45.7516,469.972072678326
45.7812,483.886982845607
45.8108,460.512613521695
45.8404,431.717025572007
45.8701,428.776320215272
45.8997,441.63336696939
45.9293,433.543405114401
45.9589,416.59737638749
45.9885,402.38479650185
46.0181,410.671039354189
46.0477,435.734858681023
46.0773,431.006054490419
46.1069,405.13824419778
46.1366,419.179004037686
46.1662,436.36663303061
46.1958,444.450386814665
46.2254,445.892328398385
46.255,462.469223007063
46.2846,483.312815338043
46.3142,477.199192462987
46.3438,483.309451732261
46.3734,502.875882946519
46.4031,509.327052489907
46.4327,507.307769929364
46.4623,500.708375378409
46.4919,520.411032626976
46.5215,512.05047106326
46.5511,517.520686175579
46.5807,552.566767574839
46.6103,562.81796769852
46.6399,563.728893373696
46.6696,569.55533131517
46.6992,596.613728129204
46.7288,642.847628657922
46.7584,668.289942818702
46.788,704.269515477792
46.8176,747.058526740665
46.8472,806.069626639753
46.8768,888.954239569305
46.9064,1017.84157416752
46.9361,1150.06222670702
46.9657,1294.032974428
46.9953,1511.50521358898
47.0249,1865.65993945514
47.0545,2345.96770938447
47.0841,3013.91117092871
47.1137,3686.63303060886
47.1433,3904.57820383451
47.1729,3813.80013458947
47.2025,3637.80760174908
47.2322,3612.86982845611
47.2618,3652.75908479139
47.2914,3614.18768920282
47.321,3539.93945509586
47.3506,3660.40242261106
47.3802,4112.90110998982
47.4098,4906.312815338
47.4394,6250.29676985199
47.469,8494.51967709366
47.4987,10893.2189707368
47.5283,12448.5940127817
47.5579,12156.0430686409
47.5875,10871.0733266061
47.6171,10030.7235116044
47.6467,9224.6655450875
47.6763,7971.37706020837
47.7059,6254.45677766544
47.7355,4693.2563930014
47.7652,3569.2593340061
47.7948,2795.41876892031
47.8244,2235.03095558547
47.854,1902.51261352168
47.8836,1650.38479650187
47.9132,1439.30686406461
47.9428,1307.77396569122
47.9724,1253.88765556675
48.002,1150.7897039031
48.0317,1131.55936764212
48.0613,1049.0736629667
48.0909,1015.66700302726
48.1205,1094.37954239569
48.1501,1159.42986881937
48.1797,1239.554658594
48.2093,1348.61776581428
48.2389,1489.07366296671
48.2685,1662.01816347124
48.2982,1861.15948855988
48.3278,2191.46148671381
48.3574,2699.19845274137
48.387,3484.37012113051
48.4166,4535.15338042395
48.4462,6183.28826101603
48.4758,8473.39905787385
48.5054,10998.3662966702
48.535,12179.1735620584
48.5647,10953.5872855702
48.5943,9477.32907133238
48.6239,8749.31685166498
48.6535,8345.84291960989
48.6831,7085.73620457594
48.7127,5444.63471241188
48.7423,3946.65825765231
48.7719,3091.31393001338
48.8015,2321.20248906823
48.8312,1882.78002018163
48.8608,1586.51312247646
48.8904,1391.15640766902
48.92,1189.54456777664
48.9496,1041.90410497981
48.9792,988.947191389183
49.0088,876.819374369323
49.0384,858.315275908485
49.068,796.555331315174
49.0977,751.207870837538
49.1273,754.454423141608
49.1569,762.816958277252
49.1865,793.486377396572
49.2161,836.981163807603
49.2457,874.720053835799
49.2753,915.121762529435
49.3049,1059.07467204846
49.3345,1321.9367429341
49.3642,1831.57719475267
49.3938,3103.13387151048
49.4234,5516.31897711969
49.453,7121.27648839541
49.4826,5012.25933400623
49.5122,3250.97442799462
49.5418,3255.82139253272
49.5714,4026.27581567442
49.601,3406.00000000001
49.6307,2085.33400605452
49.6603,1234.31022880226
49.6899,980.373360242156
49.7195,764.978809283546
49.7491,691.283983849253
49.7787,615.687184661957
49.8083,563.381769256643
49.8379,548.428667563931
49.8675,532.559704002691
49.8972,502.115708039021
49.9268,480.840847913861
49.9564,466.621594349142
49.986,467.902455432224
50.0156,494.520861372816
50.0452,463.001345442314
50.0748,500.414732593333
50.1044,531.031628532975
50.134,550.670702993608
50.1636,489.054826774305
50.1933,459.958964009418
50.2229,475.49125168237
50.2525,456.842583249245
50.2821,458.64749411369
50.3117,461.723418573352
50.3413,397.85401950891
50.3709,385.605449041372
50.4005,403.79542395693
50.4301,399.76522031618
50.4598,396.330978809284
50.4894,380.059219380887
50.519,392.98150016818
50.5486,397.630676084763
50.5782,398
50.6078,384.972754793137
50.6374,380.40766902119
50.667,389.457114026236
50.6966,422.659152086137
50.7263,379.282542885978
50.7559,371.85031954255
50.7855,355.921601615074
50.8151,370.680121089806
50.8447,388.238143289605
50.8743,343.49360699866
50.9039,396.184661957611
50.9335,380.958291288261
50.9631,342.994279946165
50.9928,367.968718466196
51.0224,384.784056508576
51.052,351.305518169586
51.0816,385.767238479644
51.1112,351.859401278168
51.1408,343.39535666218
51.1704,356.706357214934
51.2,368.687521022535
51.2296,344.296333669696
51.2593,337
51.2889,358.849983181971
51.3185,342.496468213927
51.3481,339.087483176313
51.3777,343.837874201144
51.4073,338.894382778338
51.4369,341.554508748318
51.4665,383.004036326939
51.4961,353.976454759499
51.5258,342.248990578735
51.5554,338.527749747729
51.585,379.237134207877
51.6146,389.578734858681
51.6442,390.197780020181
51.6738,356.773629330643
51.7034,328.794078061908
51.733,322.280188361924
51.7626,325.577194752774
51.7923,332.715438950556
51.8219,320.794078061913
51.8515,312.881937436932
51.8811,314.104944500505
51.9107,331.042732166889
51.9403,322.055499495459
51.9699,359.776320215264
51.9995,345.763795423957
52.0291,321.834510595358
52.0588,334.986209216276
52.0884,324.091520861374
52.118,302.921291624621
52.1476,315.666666666667
52.1772,332.287685060565
52.2068,322.834846955935
52.2364,306.191725529766
52.266,333.475613858061
52.2956,310.987886944815
52.3253,310.911873528423
52.3549,303.797174571137
52.3845,296.815612382234
52.4141,305.948536831484
52.4437,320.03699966364
52.4733,324.130551816959
52.5029,338.472586612846
52.5325,331.407669021192
52.5621,310.623822341857
52.5918,299.124117053481
52.6214,294.184661957619
52.651,300.21130551817
52.6806,296.049445005046
52.7102,310.139253279516
52.7398,329.881561238222
52.7694,315.89841910528
52.799,306.477295660949
52.8286,298.646821392533
52.8583,310.528263795424
52.8879,306.755802219981
52.9175,300.920618903463
52.9471,310.369448183041
52.9767,305.754456777665
53.0063,302.21190716448
53.0359,329.244279946163
53.0655,338.56407669021
53.0951,332.241170534814
53.1247,313.023889636604
53.1544,315.405987218293
53.184,328.692230070637
53.2136,322.946837146702
53.2432,319.910528086109
53.2728,330.949882273796
53.3024,332.727547931379
53.332,323
53.3616,320.473932055162
53.3912,319.001681802893
53.4209,327.5
53.4505,329.546249579548
53.4801,333.337033299699
53.5097,339.102288021533
53.5393,338.381096535487
53.5689,358.752438614192
53.5985,363.71601615074
53.6281,365.458123107972
53.6577,393.317188025566
53.6874,409.580080753703
53.717,415.5391860074
53.7466,459.274806592661
53.7762,506.121130551817
53.8058,527.674066599398
53.8354,601.154725866135
53.865,697.32156071308
53.8946,837.745962314963
53.9242,1089.08375378407
53.9539,1597.22502522714
53.9835,2606.74629878869
54.0131,4693.65926673399
54.0427,7186.23915237129
54.0723,7230.88627187076
54.1019,4937.09081735602
54.1315,3453.87117389846
54.1611,3515.45524899068
54.1907,4233.66094853681
54.2204,3989.2230070634
54.25,2535.40780619129
54.2796,1477.89606458122
54.3092,1021.32828792462
54.3388,743.29431550621
54.3684,618.699865410505
54.398,529.352169525728
54.4276,495.737975109318
54.4572,454.475100942126
54.4869,455.39858728557
54.5165,444.023545240503
54.5461,402.487213997309
54.5757,382.115035317855
54.6053,368.681802892701
54.6349,384.876177658142
54.6645,372.343424150691
54.6941,389.559031281534
54.7237,387.874831763136
54.7534,339.67507568113
54.783,356.95089135554
54.8126,388.674293405111
54.8422,389.670702993607
54.8718,420.153380423814
54.9014,402.043726875215
54.931,359.231493943466
54.9606,340.784729229733
54.9902,363.102926337032
55.0199,361.197173620459
55.0495,320.856710393542
55.0791,323
55.1087,325.492261103634
55.1383,335.273461150354
55.1679,342.389505549949
55.1975,340.64131897712
55.2271,338.899764547593
55.2567,317.090144635048
55.2864,322.886944818302
55.316,306.252943155062
55.3456,315.662966700301
55.3752,334.934746047762
55.4048,336.248990578738
55.4344,319.132526067946
55.464,316.89404641776
55.4936,332.247644683715
55.5232,335.145644130507
55.5529,321.953582240163
55.5825,334.277254374159
55.6121,333.703329969724
55.6417,347.759838546917
55.6713,315.746298788692
55.7009,300.984527413389
55.7305,311.134880591995
55.7601,319.051144010767
55.7897,315.742684157417
55.8194,322.877901109989
55.849,342.524899057874
55.8786,354.35250588631
55.9082,353.07803565422
55.9378,345.532795156401
55.9674,374.573014804847
55.997,360.500168180286
56.0266,377.607467204844
56.0562,374.361709286676
56.0858,400.902119071644
56.1155,418.393541876888
56.1451,459.947510094212
56.1747,475.922973427518
56.2043,422.482004709046
56.2339,418.306864064601
56.2635,498.152371342076
56.2931,473.514631685167
56.3227,494.077388963659
56.3523,516.457450386821
56.382,573.736966027584
56.4116,630.065590312819
56.4412,728.514804845231
56.4708,870.337706020847
56.5004,1101.87689202826
56.53,1382.90713324359
56.5596,1805.05549949547
56.5892,2042.2630339724
56.6188,1891.27052489909
56.6485,1670.52001345444
56.6781,1455.43222334342
56.7077,1448.3331090175
56.7373,1445.42986881937
56.7669,1319.37268752101
56.7965,1103.20995962312
56.8261,890.772956609475
56.8557,787.730575176601
56.8853,714.484522207278
56.915,608.91927346115
56.9446,608.259670366632
56.9742,641.462495795495
57.0038,626.280955585462
57.0334,671.442986881935
57.063,649.431550622259
57.0926,724.376177658145
57.1222,750.677766565755
57.1518,816.156407669019
57.1815,1006.51480484523
57.2111,1108.19979818366
57.2407,1305.33400605449
57.2703,1459.8008745375
57.2999,1822.68977119782
57.3295,2286.46014127143
57.3591,3029.5909855366
57.3887,3999.953230148
57.4183,4831.93272788424
57.448,4808.46686848301
57.4776,4256.55600403626
57.5072,3787.91318977125
57.5368,4042.82542885975
57.5664,4675.34409687186
57.596,4390.97981157469
57.6256,3429.49949545915
57.6552,2551.38816010772
57.6848,2062.79138627183
57.7145,1842.24318869831
57.7441,1717.31483350152
57.7737,1429.15208613724
57.8033,1108.1745711403
57.8329,895.742684157418
57.8625,821.426648721399
57.8921,773.25260679448
57.9217,703.829465186691
57.9513,705.109690444145
57.981,697.899091826437
58.0106,790.155734947855
58.0402,836.654221325255
58.0698,869.393001345896
58.0994,962.177598385468
58.129,992.450050454089
58.1586,905.801480484519
58.1882,853.842583249239
58.2178,751.031281533791
58.2475,761.087146702561
58.2771,728.848637739652
58.3067,672.473932055161
58.3363,584.737213997313
58.3659,553.192734611501
58.3955,479.138244197769
58.4251,449.209959623153
58.4547,416.768583921965
58.4843,391.891355533133
58.514,394.63841237807
58.5436,379.485868102285
58.5732,354.643794147328
58.6028,376.144635048774
58.6324,358.425302826379
58.662,357.043054154053
58.6916,361.216952573159
58.7212,353.998654104981
58.7508,308.229397914558
58.7805,326.408341742353
58.8101,340.325706594885
58.8397,333.349478641103
58.8693,311.449041372353
58.8989,327.004037685059
58.9285,304.375714766231
58.9581,322.923982509254
58.9877,338.651413189773
59.0173,312.087790110998
59.0469,306.782374705684
59.0766,300.445341405988
59.1062,310.772880215343
59.1358,311.264715775312
59.1654,318.169525731586
59.195,298.843203230147
59.2246,299.077026572484
59.2542,305.649512277161
59.2838,294.661843876178
59.3134,292.885973763875
59.3431,322.819374369318
59.3727,303.913189771199
59.4023,299.832828792465
59.4319,314.323242515977
59.4615,337.996298788696
59.4911,325.021190716451
59.5207,288.898082744705
59.5503,337.768247561382
59.5799,365.686406460296
59.6096,318.014799865454
59.6392,323.245206861761
59.6688,321.106325706597
59.6984,308.618230743357
59.728,326.718802556339
59.7576,334.343203230148
59.7872,346.198789101919
59.8168,344.477632021526
59.8464,337.394347240916
59.8761,358.117726202494
59.9057,367.415405314498
59.9353,391.67967698519
59.9649,386.230070635723
59.9945,381.967036663305
60.0241,360.831763122473
60.0537,363.498822737978
60.0833,382.688193743695
60.1129,383.6865119408
60.1426,371.1534320323
60.1722,401.058863101243
60.2018,405.796165489406
60.2314,400.026244952893
60.261,402.204843592331
60.2906,417.038345105952
60.3202,461.620794078065
60.3498,476.80154725866
60.3794,476.812310797174
60.4091,509.440444145363
60.4387,581.28052472249
60.4683,631.008072653884
60.4979,735.92967698517
60.5275,874.354860410364
60.5571,1086.00100908174
60.5867,1381.06155398591
60.6163,1740.04172274568
60.6459,2208.14228052479
60.6756,2693.62966700299
60.7052,2948.61238223419
60.7348,2804.32996972753
60.7644,2428.82172889332
60.794,2177.72139973084
60.8236,2234.09855364952
60.8532,2326.68516649849
60.8828,2192.19246298788
60.9124,2009.09149007737
60.9421,1930.14093508241
60.9717,1922.61507402423
61.0013,1973.65354860411
61.0309,2008.03531786075
61.0605,1845.61978465679
61.0901,1624.37739656912
61.1197,1497.95896400944
61.1493,1450.25227043391
61.1789,1475.23721399731
61.2086,1412.08476286579
61.2382,1295.97309115372
61.2678,1258.46702557201
61.2974,1283.64984863774
61.327,1335.98486377396
61.3566,1474.40477792731
61.3862,1640.77026572485
61.4158,1678.85031954255
61.4454,1569.86440107672
61.4751,1419.73158425833
61.5047,1342.46014127145
61.5343,1294.30047106326
61.5639,1256.46451395897
61.5935,1160.41136898755
61.6231,1006.16649848637
61.6527,873.990578734872
61.6823,759.557685839213
61.7119,694.580894719136
61.7416,631.123822341855
61.7712,596.995290951901
61.8008,558.308779011087
61.8304,495.368775235535
61.86,473.848637739656
61.8896,461
61.9192,446.577388963662
61.9488,435.387487386485
61.9784,440.046754120416
62.008,424.00269179004
62.0377,443.365960309452
62.0673,456.293979145643
62.0969,469.066621803499
62.1265,472.071644803225
62.1561,523.742684157416
62.1857,555
62.2153,579.492597577393
62.2449,658.922300706351
62.2745,775.39589640094
62.3042,1006.37113055184
62.3338,1493.1160443997
62.3634,2433.44904137251
62.393,3871.39838492609
62.4226,4832.07063572153
62.4522,4095.81769256624
62.4818,2602.94683714661
62.5114,1930.83316515304
62.541,1988.69525731581
62.5707,2577.62483176312
62.6003,2837.10998990913
62.6299,2144.41035990593
62.6595,1414.40161453083
62.6891,1007.96231493943
62.7187,756.670030272439
62.7483,676.903464513952
62.7779,619.759757738896
62.8075,595.168180289269
62.8372,581.658257652197
62.8668,571.332436069985
62.8964,618.072653884964
62.926,666.541876892027
62.9556,750.257065948849
62.9852,799.117053481343
63.0148,891.449041372355
63.0444,1022.77792732164
63.074,1154.4937773293
63.1037,1150.58661284897
63.1333,1089.18102288022
63.1629,1006.92061890346
63.1925,935.160443995954
63.2221,881.706020854354
63.2517,867.89401076716
63.2813,843.39690548268
63.3109,800.529767911189
63.3405,687.364064602949
63.3702,621.794147325944
63.3998,552.483686511929
63.4294,484.009421265139
63.459,518.932391523713
63.4886,493.693239152374
63.5182,405.800807537013
63.5478,451.64244870501
63.5774,462.105953582237
63.607,444.966016150741
63.6367,438.983518331655
63.6663,469.329969727548
63.6959,495.349478641109
63.7255,535.289367429341
63.7551,525.651866801214
63.7847,578.407669021204
63.8143,662.779946164208
63.8439,775.129835183297
63.8735,1104.2704339051
63.9032,1573.88223418565
63.9328,2537.74806592678
63.9624,4100.920282543
63.992,4885.27052489912
64.0216,3679.08341742345
64.0512,2268.67810292639
64.0808,1731.45154777927
64.1104,1964.13420787083
64.14,2470.75075681135
64.1697,2779.20053835793
64.1993,2087.9737638749
64.2289,1356.03397241841
64.2585,960.140262361254
64.2881,787.803499327041
64.3177,678.762529431547
64.3473,716.066263033971
64.3769,671.054845222072
64.4065,689
64.4362,695.004036326947
64.4658,811.457267833104
64.4954,887.246552304072
64.525,990.479650184991
64.5546,1161.89602960971
64.5842,1348.33400605439
64.6138,1867.40430541542
64.6434,2282.59421265147
64.673,2649.1368987555
64.7027,2892.59603094517
64.7323,2673.19172552978
64.7619,2421.0955585464
64.7915,2139.53178607469
64.8211,1966.29263370334
64.8507,1992.83652875883
64.8803,1985.08075370121
64.9099,1770.15304406322
64.9395,1468.72620248902
64.9691,1222.62853297438
64.9988,1023.7285570131
65.0284,843.114026236103
65.058,728.650067294764
65.0876,627.702993609159
65.1172,646.056172216614
65.1468,599.254374158819
65.1764,571.335015136227
65.206,511.336696939107
65.2356,557.932705248988
65.2653,517.707702657248
65.2949,570.269088462834
65.3245,570.270433905146
65.3541,585.781628532977
65.3837,647.982845610482
65.4133,666.794147325932
65.4429,710.115074024219
65.4725,765.938446014121
65.5021,861.682811974438
65.5318,1147.36776581428
65.5614,1296.83888328286
65.591,1673.4510595358
65.6206,1935.65444145351
65.6502,1989.55903128153
65.6798,2062.00100908173
65.7094,1820.04273216684
65.739,1668.58661284898
65.7686,1584.86781029264
65.7983,1547.1331987891
65.8279,1490.12786002693
65.8575,1356.08543558692
65.8871,1196.13689875544
65.9167,987.688425302834
65.9463,839.598385469226
65.9759,787.724857046759
66.0055,671.804845222045
66.0351,600.788092835523
66.0648,550.04305415406
66.0944,490.430686406473
66.124,458.48637739657
66.1536,419.430877901109
66.1832,390.706594885602
66.2128,408.810628994285
66.2424,387.260343087792
66.272,330.209959623154
66.3016,347.66969391187
66.3313,366.212243525059
66.3609,347.494450050454
66.3905,330.114064602964
66.4201,337.245206861757
66.4497,321.190716448033
66.4793,328.473755047106
66.5089,318.044399596366
66.5385,313.229061553986
66.5681,295.363055181698
66.5978,296.127144298688
66.6274,294.192398250925
66.657,284.668573351277
66.6866,271.456441305079
66.7162,262.010090817358
66.7458,262.978465679678
66.7754,276.585603767236
66.805,278.792129162462
66.8346,282.38950554995
66.8643,277.422611036341
66.8939,266.281533804237
66.9235,258.667003027244
66.9531,273.514804845221
66.9827,260.728557013117
67.0123,269.315842583249
67.0419,271.063257065949
67.0715,266.19609821729
67.1011,266.393205516313
67.1308,276.045760430686
67.1604,270.318197107298
67.19,283.866801210901
67.2196,292.683041722746
67.2492,277.388160107639
67.2788,261.907164480324
67.3084,266.713324360701
67.338,271
67.3676,270.338378742011
67.3973,271.981836528759
67.4269,270.374158815612
67.4565,257.260343087787
67.4861,259.421796165489
67.5157,280.73553162853
67.5453,258.668348469556
67.5749,253.065926673391
67.6045,270.094212651413
67.6341,274.120080726539
67.6638,273
67.6934,297.23721399731
67.723,305.210561722166
67.7526,288.130171543892
67.7822,282.434724091521
67.8118,299.11099899092
67.8414,270.595694584594
67.871,261.083753784053
67.9006,263.127187079408
67.9302,267.571140262362
67.9599,272.068617558023
67.9895,264.179004037687
68.0191,261.155734947864
68.0487,260.279515640767
68.0783,255.014804845222
68.1079,275.733602421789
68.1375,279.982172889334
68.1671,271.226110363392
68.1967,265.267743020518
68.2264,263.961654894048
68.256,265.264468371466
68.2856,283.62966700303
68.3152,311.231752438615
68.3448,311.985195154781
68.3744,300.229061553987
68.404,286.011099899092
68.4336,273.350487722838
68.4632,287.583445491252
68.4929,281.798520013458
68.5225,280.965691220989
68.5521,306.600605652758
68.5817,298.39757820384
68.6113,275.015136226033
68.6409,262.535329744281
68.6705,273.231752438614
68.7001,292.863773965691
68.7297,287.392328398388
68.7594,274.556004036327
68.789,278.723511604438
68.8186,295.400403768509
68.8482,307
68.8778,306.535822401615
68.9074,306
68.937,308.277927321669
68.9666,319.125126135218
68.9962,349.116044399596
69.0259,357.938088829064
69.0555,381.313824419777
69.0851,446.064917591655
69.1147,512.305518169572
69.1443,595.734275142947
69.1739,664.129162462169
69.2035,766.909152086146
69.2331,808.753784056509
69.2627,771.981163807596
69.2924,709.796769851958
69.322,657.650184998323
69.3516,640.078708375384
69.3812,644.056527590843
69.4108,627.730575176588
69.4404,624.474268415745
69.47,607.229061553986
69.4996,629.254710632557
69.5292,685.475950218631
69.5589,767.519004372691
69.5885,799.0884925976
69.6181,655.427177934742
69.6477,533.032290615531
69.6773,477
69.7069,484.452068617556
69.7365,508.514631685169
69.7661,543.926648721398
69.7957,552.449041372355
69.8254,487.807265388496
69.855,432.222072678332
69.8846,396.695593676425
69.9142,367.671712075345
69.9438,368.295660948537
69.9734,381.86810228802
70.003,416.042717793478
70.0326,452.134207870838
70.0622,478.079407806191
70.0919,477.530440632358
70.1215,505.438950554992
70.1511,593.52893674294
70.1807,709.942818701642
70.2103,854.051126807964
70.2399,967.970390309559
70.2695,1012.40565085772
70.2991,1057.87857383115
70.3287,998.318977119782
70.3584,955.74672048436
70.388,909.657248570468
70.4176,814.086137281294
70.4472,821.858728557013
70.4768,785.476286579213
70.5064,765.526067944839
70.536,695.697510094222
70.5656,606.394550958622
70.5952,546.264043054157
70.6249,513.545760430683
70.6545,450.510931718809
70.6841,417.631012445337
70.7137,382.569313593537
70.7433,386.460141271442
70.7729,350.849646821392
70.8025,334.733849259758
70.8321,337.783383787414
70.8617,308.990918264379
70.8913,303.024899057874
70.921,296.377396569121
70.9506,300.460813992601
70.9802,293.247644683715
71.0098,287.976118398923
71.0394,280.257315842583
71.069,282.49512277161
71.0986,267.880215343202
71.1282,276.332660612176
71.1578,270.725529767909
71.1875,262.068640646032
71.2171,279.41675075681
71.2467,285.010427177935
71.2763,273.405114401077
71.3059,265.08240834174
71.3355,245.678102926339
71.3651,300.378196500677
71.3947,272.977800201817
71.4243,282.048099562734
71.454,257.530282637952
71.4836,277.816010763539
71.5132,300.243188698287
71.5428,314.839892364614
71.5724,298.984185733514
71.602,307.631685166498
71.6316,314.00908173562
71.6612,325.897039030949
71.6908,352.352505886309
71.7205,349.476622939791
71.7501,386.091520861376
71.7797,413.981836528763
71.8093,494.167507568092
71.8389,675.16958277256
71.8685,890.362260343099
71.8981,1271.5018499831
71.9277,1724.36473755046
71.9573,1582.63471241181
71.987,1147.05247225029
72.0166,810.766487213997
72.0462,750.845610494448
72.0758,736.745375042054
72.1054,932.801210898094
72.135,1048.53028263796
72.1646,1003.45105953583
72.1942,857.94416414397
72.2238,744.378869448184
72.2535,673.516649848637
72.2831,693.980827447048
72.3127,520.475773889639
72.3423,479.833837874204
72.3719,460.921291624625
72.4015,443.000000000003
72.4311,459.931359353969
72.4607,440.16818028927
72.4903,490.348133198793
72.52,471.269179004041
72.5496,454.303060881262
72.5792,479.422805247225
72.6088,448.850319542549
72.6384,491.622139973086
72.668,488.174907500841
72.6976,503.37033299697
72.7272,532.697846567966
72.7568,599.704339051476
72.7865,669.585940127819
72.8161,866.223418573345
72.8457,937.340396905472
72.8753,1113.6740665994
72.9049,1287.58344549126
72.9345,1353.87218298015
72.9641,1368.18230743357
72.9937,1266.70222072679
73.0233,1160.77093844602
73.053,1087.86276488395
73.0826,1047.33714670256
73.1122,1008.59434914228
73.1418,1011.32425159771
73.1714,967.045408678105
73.201,783.890982503351
73.2306,754.093171880254
73.2602,666.141607803575
73.2898,600.301480484532
73.3195,521.617558022197
73.3491,514.630676084763
73.3787,476.596231493941
73.4083,451.893373696603
73.4379,459.369323915236
73.4675,461.8600269179
73.4971,402.956609485376
73.5267,383.635385132862
73.5563,444.695827725429
73.586,468.694248234109
73.6156,438.165489404637
73.6452,473.03935418769
73.6748,531.0067294751
73.7044,567.532122435258
73.734,567.226707029937
73.7636,508.553835800795
73.7932,485.38748738648
73.8228,448.085099226378
73.8524,455.349596231497
73.8821,427.529767911202
73.9117,464.943155062237
73.9413,432.085127860021
73.9709,412.264379414734
74.0005,411.579549276825
74.0301,371.93102288022
74.0597,327.401278170202
74.0893,298.575176589304
74.1189,296.864401076717
74.1486,308.035317860745
74.1782,298.718802556339
74.2078,295
74.2374,282.854643337816
74.267,273.716448032292
74.2966,267.49747729566
74.3262,246.596231493943
74.3558,270.422468886642
74.3854,263.296670030274
74.4151,271.737550471066
74.4447,273.337033299696
74.4743,274.184661957618
74.5039,254.001345895018
74.5335,267.594349142277
74.5631,255.252270433898
74.5927,265.493943472411
74.6223,262.394550958626
74.6519,259.405314497141
74.6816,245.967036663301
74.7112,269.992934051151
74.7408,269.135216952573
74.7704,260.244534140598
74.8,260.369448183042
74.8296,265.082744702321
74.8592,252.802219979818
74.8888,233.23317631225
74.9184,267.728220652545
74.9481,282.666666666668
74.9777,260.124495289365
75.0073,253.949545913218
75.0369,268.42381432896
75.0665,281.497308209959
75.0961,292.745711402624
75.1257,285.460141271445
75.1553,306.388627187072
75.1849,327.061553985873
75.2146,333.158425832492
75.2442,319.944500504544
75.2738,343.403768506061
75.3034,397.658594012768
75.333,450.955600403626
75.3626,590.631224764489
75.3922,796.710057181243
75.4218,1077.17019845276
75.4514,1125.72947510092
75.4811,934.951564076734
75.5107,707.948536831527
75.5403,563.830417227447
75.5699,542.598049108647
75.5995,596.466195761844
75.6291,720.634589502029
75.6587,760.44298688194
75.6883,674.388496468193
75.7179,541.765556676757
75.7476,434.3203230148
75.7772,388.738311469897
75.8068,348.033299697267
75.8364,325.195154777927
75.866,325.366296670031
75.8956,338.045072317528
75.9252,323.73586810229
75.9548,304.190716448032
75.9844,300.671039354188
76.0141,331.334118438769
76.0437,361.388160107635
76.0733,373.503868146658
76.1029,375.69650067295
76.1325,389.969727547927
76.1621,409.453077699294
76.1917,463.117092866784
76.2213,539.878573831142
76.2509,594.947527749734
76.2806,653.622603430884
76.3102,696.950201884257
76.3398,719.483013790784
76.3694,686.49512277161
76.399,615.841184387626
76.4286,578.940464177599
76.4582,573.477968382108
76.4878,563.230148048452
76.5174,570.52135889674
76.5471,577.522704339052
76.5767,542.510094212642
76.6063,480.670030272464
76.6359,441.232425159769
76.6655,419.938088829067
76.6951,398.953245879584
76.7247,399.308779011098
76.7543,410.971072990244
76.7839,408.865410497983
76.8135,393.327615203498
76.8432,413.522704339064
76.8728,438.394347240918
76.9024,448.616548940465
76.932,479.830137907839
76.9616,473.198183041723
76.9912,494.214261688531
77.0208,575.274470232084
77.0504,628.878532974429
77.08,702.272452068619
77.1097,786.877901109989
77.1393,864.881224764497
77.1689,1006.76421123444
77.1985,1066.27850655903
77.2281,1067.50807537012
77.2577,1038.72889337369
77.2873,988.833165153032
77.3169,910.882946518676
77.3465,881.874831763118
77.3762,908.503531786073
77.4058,878.830474268413
77.4354,854.475773889642
77.465,788.875882946502
77.4946,691.491422805242
77.5242,653.485868102287
77.5538,610.094853683146
77.5834,551.440632357887
77.613,561.625841184387
77.6427,572.988563740329
77.6723,604.233097880934
77.7019,652.314939434721
77.7315,685.961991254613
77.7611,591.746047763205
77.7907,497.613521695279
77.8203,423.004374158814
77.8499,419.816010763534
77.8795,412.058190380093
77.9092,446
77.9388,449.819038008747
77.9684,441.210898082754
77.998,373.095558546443
78.0276,328.860073999326
78.0572,334.188025563405
78.0868,319.465006729474
78.1164,298.763874873864
78.146,293.057181298352
78.1757,282.645356662181
78.2053,267.573158425832
78.2349,266.501513622604
78.2645,272.958950201886
78.2941,257.35015136226
78.3237,263.9858728557
78.3533,267.106962663978
78.3829,253.847913862718
78.4125,258.455095862765
78.4422,261.517658930373
78.4718,252.607671601615
78.5014,250.832492431888
78.531,242.15136226034
78.5606,275.051144010767
78.5902,275.456104944498
78.6198,290.830137907836
78.6494,278.194481830419
78.679,309.766229397915
78.7087,326.781365623952
78.7383,354.718707940789
78.7679,406.759838546919
78.7975,414.704002690886
78.8271,346.954254961317
78.8567,299.991924629877
78.8863,283.731584258325
78.9159,291.122771611165
78.9455,310.550471063256
78.9752,316.053481331985
79.0048,323.566431214257
79.0344,283.000336473761
79.064,248.379414732594
79.0936,247.472586612855
79.1232,270.345558546434
79.1528,249.888664648503
79.1824,252.315842583251
79.212,276.510767160163
79.2417,247.019172552975
79.2713,256.487722838882
79.3009,263.050471063258
79.3305,278.454086781038
79.3601,233.525731584256
79.3897,247.105953582245
79.4193,216.205248990577
79.4489,242.424150689538
79.4785,235.338042381433
79.5082,240.866083445493
79.5378,251.373360242179
79.5674,228.97847292298
79.597,259.815612382235
79.6266,239.448032290615
79.6562,248.59031281534
79.6858,261.451547779272
79.7154,270.816010763538
79.745,240.554658594016
79.7746,256.971736204576
79.8043,255.338042381436
79.8339,232.580221997979
79.8635,257.20719811638
79.8931,268.028936742934
79.9227,269.885301042718
79.9523,259.139253279516
79.9819,281.97139973082
80.0115,265.04004037685
80.0411,240.168180289271
80.0708,258.853010427176
80.1004,251.094212651414
80.13,266.741675075683
80.1596,276.79482004709
80.1892,268.221063257066
80.2188,237.896737302395
80.2484,278.568113017156
80.278,261.709623149393
80.3076,261
80.3373,262.914564413051
80.3669,258.233849259758
80.3965,290.261688530106
80.4261,308.056508577196
80.4557,341.904473595701
80.4853,372.082099596235
80.5149,435.493440968731
80.5445,540.153380423831
80.5741,589.547779273215
80.6038,631.736629667007
80.6334,641.425496131853
80.663,769.940780619097
80.6926,880.228052472243
80.7222,774.141271442961
80.7518,654.771870794094
80.7814,637.61957618567
80.811,587.02758156745
80.8406,513.489905787347
80.8703,587.520686175568
80.8999,635.966700302719
80.9295,693.714429868833
80.9591,689.631561238221
80.9887,655.803901782715
81.0183,575.676084762863
81.0479,547.627523553162
81.0775,499.558694920962
81.1071,497.971072990244
81.1368,492.181695827725
81.1664,487.608139926
81.196,486.156407669021
81.2256,502.79004037685
81.2552,484.285233770608
81.2848,513.232425159771
81.3144,529.093876177657
81.344,548.27043390515
81.3736,547.909855364951
81.4033,599.306864064617
81.4329,678.477632021539
81.4625,813.67440295995
81.4921,899.905146316845
81.5217,1056.42395693133
81.5513,1128.608139926
81.5809,1141.95728220652
81.6105,1119.37954239569
81.6401,1072.28153380425
81.6698,969.501513622625
81.6994,933.886944818305
81.729,891.544904137239
81.7586,865.384123780695
81.7882,863.295423956931
81.8178,838.892028254294
81.8474,821.16582576522
81.877,745.021534320309
81.9066,688.833165153039
81.9363,637.658930373367
81.9659,591.321897073657
81.9955,536.424966352613
82.0251,504.845946855032
82.0547,492.430877901109
82.0843,490.725773889637
82.1139,468.633703329964
82.1435,468.605449041371
82.1731,482.69481830417
82.2028,459.941136898759
82.2324,442.630676084764
82.262,437.185733512786
82.2916,408.727547931384
82.3212,381.016818028924
82.3508,378.835464333782
82.3804,374.821392532795
82.41,387.007063572147
82.4396,384.508075370119
82.4693,353.59334006055
82.4989,347.054490413723
82.5285,331.954591321904
82.5581,322.335800807537
82.5877,322
82.6173,318.722166162126
82.6469,326.771197846567
82.6765,320.351160443996
82.7061,319.785065590314
82.7357,358.763122476454
82.7654,378.362260343088
82.795,390.033972418431
82.8246,431.606325706593
82.8542,520.120417087101
82.8838,655.328960645787
82.9134,834.434724091513
82.943,962.034981500158
82.9726,871.00807265385
83.0022,682.985872855697
83.0319,543.300807537038
83.0615,492.016145307772
83.0911,487.405987218298
83.1207,530.648048452223
83.1503,592.036999663634
83.1799,632.018163471238
83.2095,653.078734858681
83.2391,585.678775647511
83.2687,501.440632357892
83.2984,477.297106325706
83.328,445.576185671032
83.3576,424.236125126134
83.3872,452.077725437405
83.4168,461.436932391524
83.4464,475.488731920625
83.476,480.364401076712
83.5056,483.597376387482
83.5352,526.874201143618
83.5649,593.466868483024
83.5945,643.26312247645
83.6241,728.318869828448
83.6537,839.211907164472
83.6833,933.578734858671
83.7129,1052.02119071647
83.7425,1205.18600739991
83.7721,1395.06258411841
83.8017,1529.90615539859
83.8314,1532.14631685166
83.861,1486.22880215344
83.8906,1446.50285906492
83.9202,1340.60174907499
83.9498,1238.58546433379
83.9794,1193.94651866801
84.009,1158.22468886646
84.0386,1129.22031617895
84.0682,1108.4131897712
84.0979,1106.36259670366
84.1275,1041.77396569123
84.1571,922.808209959646
84.1867,805.880591994621
84.2163,739.429196098221
84.2459,670.008075370099
84.2755,595.310797174571
84.3051,559.799865455767
84.3347,522.136608344551
84.3644,533.152371342077
84.394,515.728893373704
84.4236,501.513458950202
84.4532,504.17053481332
84.4828,503
84.5124,506.248990578735
84.542,519.039017827113
84.5716,529.012108980827
84.6012,514.990245543229
84.6309,512.516150740243
84.6605,578.473932055157
84.6901,640.475613858058
84.7197,674.786002691796
84.7493,776.904137235103
84.7789,895.862092162806
84.8085,1080.91588156126
84.8381,1277.48503195428
84.8677,1524.15338042387
84.8974,1761.10430686405
84.927,1829.32492431889
84.9566,1591.85166498482
84.9862,1233.46029609692
85.0158,1067.15371678438
85.0454,948.599394550964
85.075,949.909182643783
85.1046,986.982166890982
85.1342,1022.94046417763
85.1639,1099.15573494786
85.1935,1061.98687752355
85.2231,903.453077699293
85.2527,748.269761184004
85.2823,643.397375504722
85.3119,548.906155398575
85.3415,469.683148335013
85.3711,426.614064602959
85.4007,406.775647494107
85.4304,370.786411032635
85.46,337.434051144011
85.4896,328.750084090146
85.5192,315.763874873867
85.5488,324.245289367432
85.5784,311.587285570134
85.608,316.009081735625
85.6376,280.625630676084
85.6672,268
85.6968,277.707366296676
85.7265,303.281533804238
85.7561,280.794078061915
85.7857,256.53750420451
85.8153,285.532795156406
85.8449,272.154104979811
85.8745,273.279515640767
85.9041,266.668012108978
85.9337,274.473755047105
85.9633,267.716448032291
85.993,268.748738647825
86.0226,285.201884253034
86.0522,268.840565085771
86.0818,270.796501849978
86.1114,256.655903128157
86.141,280.745289367428
86.1706,263.627648839553
86.2002,251.195761856711
86.2298,269.218707940788
86.2595,307
86.2891,302.660948536837
86.3187,287.585127860032
86.3483,319.624285233773
86.3779,346.85872855702
86.4075,363.714333781964
86.4371,353.161453077702
86.4667,386.636057854025
86.4963,352.298788694483
86.526,366.571812983518
86.5556,373.048772283889
86.5852,389.0464333782
86.6148,367.787083753784
86.6444,355.138580558359
86.674,369.757147662294
86.7036,363.316285329739
86.7332,326.304742684158
86.7628,315.498822737978
86.7925,332.769851951552
86.8221,306.725193407332
86.8517,308.4355869492
86.8813,272.693135935405
86.9109,324.275479313827
86.9405,295.098217288937
86.9701,274.917900403768
86.9997,274.858392196433
87.0293,280.580221997975
87.059,228.125168236877
87.0886,266.07870837538
87.1182,241.092162798522
87.1478,255.143962327614
87.1774,226.388627187078
87.207,234.44096871847
87.2366,258.833837874209
87.2662,217.307537012117
87.2958,267.800874537498
87.3255,238.678102926338
87.3551,255.733512786003
87.3847,247.41473259334
87.4143,228.448032290615
87.4439,245.692126514129
87.4735,231.164816683485
87.5031,241.036326942483
87.5327,244.085127860025
87.5623,254.926000672722
87.592,234.930036999658
87.6216,209.043726875204
87.6512,212.977119784657
87.6808,221.909182643794
87.7104,219.043390514632
87.74,234.698620921628
87.7696,239.885598923283
87.7992,252.645812310796
87.8288,240.411032626977
87.8585,257.418573351282
87.8881,267.63336696939
87.9177,232.518331651535
87.9473,231
87.9769,261.417759838547
88.0065,229.883619239829
88.0361,270.395693135945
88.0657,244.866801210896
88.0953,256.067608476289
88.125,274.721399730818
88.1546,264.859737638746
88.1842,274.163807601749
88.2138,282.356878573831
88.2434,276.59118438762
88.273,275.088799192734
88.3026,306.738984191055
88.3322,310.902759084791
88.3618,351.428859737649
88.3915,377.537840565081
88.4211,456.827052489899
88.4507,555.789101917255
88.4803,743.041035990526
88.5099,936.827052489877
88.5395,1203.58896737304
88.5691,1071.47729566091
88.5987,801.422274562558
88.6283,649.162798520021
88.6579,528.771274806622
88.6876,404.706931359334
88.7172,440.80322906155
88.7468,533.265388496473
88.7764,630.836865119413
88.806,726.753701211317
88.8356,712.709720820716
88.8652,577.131180625614
88.8948,454.905787348561
88.9244,370.721493440964
88.9541,360.292297342752
88.9837,318.413189771184
89.0133,296.780020181638
89.0429,244.572149344091
89.0725,246.705248990578
89.1021,229.952909519009
89.1317,236.165153044065
89.1613,227.892328398383
89.1909,234.469223007064
89.2206,245.669021190718
89.2502,235.460477632021
89.2798,246.812584118437
89.3094,252.55062226707
89.339,226.01715438951
89.3686,241.004710632569
89.3982,214.448705011764
89.4278,247.214934409678
89.4574,237.624831763129
89.4871,239.037336024215
89.5167,242.74873864783
89.5463,223.639973082104
89.5759,262.900437268758
89.6055,265.752774974775
89.6351,253.681695827727
89.6647,233.538849646824
89.6943,234.954927682479
89.7239,246.62853297443
89.7536,237.073662966699
89.7832,233.427514295325
89.8128,216.265388496467
89.8424,213.231493943474
89.872,246.543895055489
89.9016,242.584931046077
89.9312,219.073351278603
89.9608,235.398587285575
89.9904,226.169189371009