4.0001,457.808274470232
4.0297,401.05751765893
4.0593,408.959623149394
4.0889,427.821056172217
4.1185,434.903464513959
4.1482,426.130215343203
4.1778,389.696939118735
4.2074,411.466195761857
4.237,391.572341857335
4.2666,350.327951564077
4.2962,349.964009418096
4.3258,314.493440968718
4.3554,336.889636608345
4.385,335.146316851665
4.4147,315.045408678103
4.4443,304.538358008075
4.4739,316.243525058863
4.5035,330.124117053481
4.5331,322.599596231494
4.5627,293.200134544231
4.5923,315.965691220989
4.6219,300.508748317631
4.6515,274.261352169526
4.6812,284.81331987891
4.7108,272.332436069987
4.7404,301.832156071309
4.77,285.145980491087
4.7996,284.796165489405
4.8292,263.543741588156
4.8588,277.014127144299
4.8884,252.440968718466
4.918,262.218371467026
4.9477,258.718466195762
4.9773,247.489404641776
5.0069,268.666890982503
5.0365,224.288933736966
5.0661,255.839556004036
5.0957,252.550807537012
5.1253,236.470232088799
5.1549,219.544567776657
5.1845,245.771870794078
5.2142,234.09451732257
5.2438,236.886310124453
5.2734,218.75336473755
5.303,238.309788092836
5.3326,231.406323578876
5.3622,243.003699966364
5.3918,219.771197846568
5.4214,206.661957618567
5.451,231.761856710393
5.4807,231.518169582773
5.5103,233.223679784729
5.5399,243.618567103935
5.5695,237.228129205922
5.5991,204.067608476286
5.6287,224.395560040363
5.6583,223.368775235531
5.6879,227.242852337706
5.7175,221.240161453078
5.7471,235.209286675639
5.7768,213.017154389506
5.8064,213.432223343424
5.836,220.573158425832
5.8656,215.17732166891
5.8952,226.568113017154
5.9248,213.763538513287
5.9544,211.726446837147
5.984,216.70501177262
6.0136,214.316851664985
6.0433,212.264131897712
6.0729,189.320887991927
6.1025,202.816347124117
6.1321,202.323014804845
6.1617,221.282879246552
6.1913,231.428859737639
6.2209,212.111709286675
6.2505,223.768583921964
6.2801,203.232425159771
6.3098,216.932368775235
6.3394,221.033972418433
6.369,184.772956609486
6.3986,183.069290279179
6.4282,210.878869448183
6.4578,216.923309788093
6.4874,199.473259334006
6.517,200.722072678331
6.5466,212.333333333333
6.5763,204.018163471242
6.6059,205.938088829071
6.6355,188.968045745039
6.6651,166.901109989909
6.6947,177.866756393001
6.7243,192.155734947864
6.7539,207.80188361924
6.7835,211.820323014805
6.8131,203.051463168516
6.8428,186.386478304743
6.8724,180.252606794484
6.902,184.11069986541
6.9316,197.12209889001
6.9612,208.294651866801
6.9908,196.375504710633
7.0204,193.051126807938
7.05,197
7.0796,199.386271870794
7.1093,205.765556676757
7.1389,213.139253279516
7.1685,202.495625841184
7.1981,188.336696939119
7.2277,191.363942145981
7.2573,185.087146702557
7.2869,187.832492431887
7.3165,186.382105617221
7.3461,184.615746971736
7.3758,186.757147662294
7.4054,190.563403969055
7.435,195
7.4646,195.547779273217
7.4942,201.97914564413
7.5238,199.990581903801
7.5534,196.1399730821
7.583,197.469223007064
7.6126,204.369660275816
7.6423,207.320995962315
7.6719,205.042717793475
7.7015,205.483013790784
7.7311,212.179004037685
7.7607,214.422805247225
7.7903,204.453750420451
7.8199,192.5
7.8495,199.882273797511
7.8791,214
7.9088,202.230070635721
7.9384,199.724091520861
7.968,198.431886982846
7.9976,197.463168516649
8.0272,223.729138627187
8.0568,217.415741675076
8.0864,203.691557349478
8.116,223.370121130552
8.1456,228.804910864447
8.1753,219.534813319879
8.2049,207.585464333782
8.2345,216.198789101918
8.2641,234.114698957282
8.2937,239.576379542396
8.3233,228.893373696602
8.3529,217.755802219979
8.3825,231.31796769852
8.4121,251.973427514295
8.4418,266.295660948537
8.4714,235
8.501,236.647375504711
8.5306,245.930373360243
8.5602,255.59670366633
8.5898,255.798115746972
8.6194,258.579549276825
8.649,255.532795156407
8.6786,238.888290713324
8.7082,229.438950554995
8.7379,253.673730238816
8.7675,289.275908479139
8.7971,295.01849983182
8.8267,283.002018163472
8.8563,276.460969044415
8.8859,294.99764547595
8.9155,305.667003027245
8.9451,291.786074672048
8.9747,285.734522207268
9.0044,285.538849646821
9.034,289.252270433905
9.0636,306.300134589502
9.0932,292
9.1228,283.210898082745
9.1524,292.583781965006
9.182,281.975445677766
9.2116,289.301379078371
9.2412,277.724091520861
9.2709,305.822065253952
9.3005,308.669021190717
9.3301,329.024899057873
9.3597,325.259334006054
9.3893,304.703666330306
9.4189,321.21467025572
9.4485,338.854692230071
9.4781,339.752102253616
9.5077,319.304742684157
9.5374,333.550471063257
9.567,330.306760847629
9.5966,366.780020181635
9.6262,336.211978465679
9.6558,321.021863437605
9.6854,362.98150016818
9.715,362.753701211305
9.7446,374.939455095863
9.7742,377.084426505213
9.8039,349.85464333782
9.8335,363.183989236462
9.8631,363.513622603431
9.8927,361.809555854642
9.9223,390.743693239152
9.9519,377.537504204507
9.9815,379.340396905483
10.0111,372.118102288021
10.0407,399.344096871847
10.0704,407.765893037336
10.1,376.60464333782
10.1296,385.3181971073
10.1592,410.227716111672
10.1888,407.566285329744
10.2184,406.860746720484
10.248,399.310124453414
10.2776,433.103297442799
10.3072,447.890346451396
10.3369,403.316515304406
10.3665,406.162516823688
10.3961,437
10.4257,435.419105280861
10.4553,426.384925975774
10.4849,424.496804574504
10.5145,431.256306760848
10.5441,419.026908846283
10.5737,409.458950201885
10.6034,423.505213588967
10.633,419.523713420788
10.6626,453.965006729476
10.6922,438.892028254288
10.7218,434.56205852674
10.7514,459.512786002692
10.781,448.441305079045
10.8106,452.423814328961
10.8402,455.796769851951
10.8699,452.789101917256
10.8995,441.517322569795
10.9291,438.106325706595
10.9587,449.440632357888
10.9883,455.842583249243
11.0179,474.253615876219
11.0475,455.125504710632
11.0771,469.993609149008
11.1067,482.134207870837
11.1364,469.737550471063
11.166,467.477295660949
11.1956,487.82711066263
11.2252,452.105652759085
11.2548,456.487386478306
11.2844,502.824419778002
11.314,457.681695827726
11.3436,496.776320215271
11.3732,463.114698957283
11.4029,437.775908479137
11.4325,493.388832828793
11.4621,471.332996972755
11.4917,486.606325706595
11.5213,519.200134544231
11.5509,461.971745711403
11.5805,458.984863773966
11.6101,455.989905787348
11.6397,441.050471063257
11.6693,473.744702320888
11.699,500.763874873865
11.7286,439.792732166891
11.7582,446.862764883956
11.7878,492.009754456778
11.8174,487.153432032302
11.847,466.628657921291
11.8766,476.622603430878
11.9062,492.386271870794
11.9358,468.110662630339
11.9655,456.480995627313
11.9951,498.849932705248
12.0247,472.564076690211
12.0543,487.982845610495
12.0839,480.547931382442
12.1135,448.20794078062
12.1431,476.713420787083
12.1727,468.810292633704
12.2023,521.491924629878
12.232,484.541876892029
12.2616,492.919946182308
12.2912,521.385598923284
12.3208,511.280861083081
12.3504,533.507568113017
12.38,512.598250336474
12.4096,535.976118398925
12.4392,543.456777665658
12.4688,534.239905787348
12.4985,520.591658257652
12.5281,561.332996972757
12.5577,530.12987886945
12.5873,475.208879919272
12.6169,440.187016481668
12.6465,490.48133198789
12.6761,450.800807537012
12.7057,431.867137571476
12.7353,418.071981163808
12.765,478.14333781965
12.7946,469.520013454422
12.8242,458.416750756812
12.8538,451.969044414536
12.8834,454.336696939119
12.913,435.91456441305
12.9426,453.468371467026
12.9722,435.001009081736
13.0018,460.229734275143
13.0315,460.469717362046
13.0611,435.452741338716
13.0907,442.114026236125
13.1203,430.541876892028
13.1499,469.353633916555
13.1795,483.179280188362
13.2091,442.106289942819
13.2387,455.376514131897
13.2683,425.244197780022
13.298,422.810292633704
13.3276,463.845895020187
13.3572,461.092835519677
13.3868,435.489068281197
13.4164,429
13.446,438.87790110999
13.4756,405.737638748739
13.5052,417.291722745627
13.5348,439.194080053817
13.5645,456.682811974436
13.5941,470.645020188425
13.6237,465.885973763875
13.6533,447.60141271443
13.6829,442
13.7125,450.697173620457
13.7421,436.708375378407
13.7717,422.83888328288
13.8013,440.647375504711
13.831,422.690548267744
13.8606,431.787420114363
13.8902,433.676985195155
13.9198,417.732593340061
13.9494,417.551294988228
13.979,434.485195154777
14.0086,425.918937100572
14.0382,434.665993945509
14.0678,420.336473755047
14.0975,430.282542885974
14.1271,417.161789438279
14.1567,413.343203230148
14.1863,416.336696939119
14.2159,433.791120080726
14.2455,427.945173225697
14.2751,447.316958277255
14.3047,454.892364614867
14.3343,403.508577194751
14.364,398.793405114401
14.3936,443.473259334007
14.4232,454.411705348133
14.4528,469.474091520861
14.4824,480.376051126808
14.512,489.293642785066
14.5416,442.074697173621
14.5712,426.723847965019
14.6008,452.563067608476
14.6304,437.292395693134
14.6601,415.584258324924
14.6897,410.805247225025
14.7193,414.744029599731
14.7489,405.63458950202
14.7785,397
14.8081,417.307769929365
14.8377,428.543741588156
14.8673,431.718129835183
14.8969,415.004709048099
14.9266,423.93135935397
14.9562,423.878573831145
14.9858,419.602421796166
15.0154,426.338492597577
15.045,446.434914228053
15.0746,450.914228052473
15.1042,422.145356662179
15.1338,427.399596367306
15.1634,420.506895391861
15.1931,383.051144010766
15.2227,405.391523713417
15.2523,430.15438950555
15.2819,414.701311806257
15.3115,402.884253028264
15.3411,391.346115035318
15.3707,390.576522031618
15.4003,400.010094212651
15.4299,405.984863773966
15.4596,408.503531786075
15.4892,413.907133243607
15.5188,410.726875210225
15.5484,393.261015808947
15.578,409.932705248991
15.6076,402.780020181632
15.6372,372.063572149344
15.6668,390.733849259757
15.6964,405.312478977464
15.7261,399.693239152371
15.7557,379.029263370332
15.7853,378.681022880215
15.8149,407.012445341406
15.8445,410.558694920955
15.8741,383.117092866756
15.9037,377.15438950555
15.9333,385.979145644131
15.9629,396.956258411845
15.9926,393.542213252605
16.0222,366.643457786747
16.0518,372.582099596231
16.0814,380.688193743694
16.111,401.187016481669
16.1406,392.744279946166
16.1702,390.264043054158
16.1998,410.774974772958
16.2294,392.162180349933
16.2591,395.730575176591
16.2887,386.71173898419
16.3183,400.813319878911
16.3479,381.079071332436
16.3775,378.989909182644
16.4071,379.38008745375
16.4367,371.777927321669
16.4663,376.875546585941
16.4959,374.003027245209
16.5256,397.436742934051
16.5552,387.478304742685
16.5848,398.737638748739
16.6144,419.976110363392
16.644,388.175916582576
16.6736,378.035317860746
16.7032,386.377187079408
16.7328,372.713757147662
16.7624,373.477968382105
16.7921,382.751429532459
16.8217,370.70995962315
16.8513,362.82038345106
16.8809,390.487050117727
16.9105,407.612382234185
16.9401,382.198789101916
16.9697,358.182643794147
16.9993,361
17.0289,373.639085099226
17.0586,401.851328624285
17.0882,392.308209959623
17.1178,388.555667675748
17.1474,389.726538849647
17.177,395.729475100943
17.2066,399.952236797846
17.2362,364.649512277161
17.2658,376.281965006729
17.2954,389.838546922301
17.3251,416.236125126135
17.3547,407.506222670703
17.3843,407.212987886945
17.4139,400.745375042047
17.4435,377.832492431888
17.4731,403.795087483176
17.5027,379.840228725193
17.5323,369.221325260679
17.5619,375.20861372813
17.5915,393.361251261352
17.6212,394.390514631686
17.6508,398.073014804847
17.6804,368.883955600404
17.71,394.770265724858
17.7396,419.272543741588
17.7692,406.664984863774
17.7988,401.745375042045
17.8284,403.362260343088
17.858,397.954239569314
17.8877,400.099899091826
17.9173,370.760847628658
17.9469,381.476446837146
17.9765,370.805583585603
18.0061,376.644803229062
18.0357,361.798115746972
18.0653,382.449041372353
18.0949,404.768583921965
18.1245,360.281292059219
18.1542,376.167507568113
18.1838,357.539858728557
18.2134,387.065948855989
18.243,393.095862764884
18.2726,386.126471577531
18.3022,377.831763122476
18.3318,366.887991927347
18.3614,402.207870837539
18.391,386.385469223006
18.4207,375.666554508749
18.4503,396.461150353178
18.4799,380.249915909854
18.5095,358.285666218034
18.5391,386.497477295662
18.5687,354.502859064917
18.5983,385.837146702557
18.6279,318.541876892028
18.6575,345.512613521697
18.6872,304.94179004038
18.7168,355.661957618567
18.7464,352.770602085434
18.776,380.001009421266
18.8056,396.328960645812
18.8352,400.082744702321
18.8648,364.737302388161
18.8944,380.834454912516
18.924,399.773965691221
18.9537,392.570131180627
18.9833,355.807537012113
19.0129,379.547931382443
19.0425,364.382105617221
19.0721,379.78532974428
19.1017,369.293979145644
19.1313,388.066599394551
19.1609,393.993270524899
19.1905,392.954254961319
19.2202,376.018499831819
19.2498,386.970400269088
19.2794,365.14804845222
19.309,356.099899091827
19.3386,355.015472586613
19.3682,370.687752355316
19.3978,386.617894382779
19.4274,362.706357214936
19.457,338.783047426842
19.4867,377.634253028265
19.5163,412.681466532122
19.5459,388.135216952574
19.5755,368.875841184387
19.6051,398.385469223006
19.6347,420.793810965356
19.6643,412.588829071332
19.6939,415.747056844938
19.7235,419.729566094854
19.7532,430.24865410498
19.7828,420.799192734611
19.8124,420
19.842,420
19.8716,415.427177934746
19.9012,438.664984863774
19.9308,413.825428859739
19.9604,423.624495289367
19.99,420.512949882274
20.0197,412.828792465523
20.0493,367.383580080755
20.0789,388.639757820384
20.1085,372.560376723848
20.1381,362.084118438762
20.1677,404.76051126808
20.1973,384.874873864783
20.2269,386.200538358008
20.2565,371.476286579213
20.2862,368.138580558359
20.3158,396.292059219381
20.3454,414.648166834847
20.375,399.178607467205
20.4046,416.269179004037
20.4342,398.994281870163
20.4638,412.55297679112
20.4934,393.549949545914
20.523,394.791722745626
20.5526,405.876892028255
20.5823,387.448368651193
20.6119,382.18203230148
20.6415,413.73259334006
20.6711,447.706357214935
20.7007,429.844549125169
20.7303,438.415741675077
20.7599,504.12714429869
20.7895,554.86541049798
20.8191,671.180625630676
20.8488,741.715438950554
20.8784,648.864401076721
20.908,594.303733602421
20.9376,534.347460477635
20.9672,484.353178607466
20.9968,491.613728129207
21.0264,454.354860410361
21.056,415.256979482004
21.0856,427.331763122476
21.1153,445.281533804238
21.1449,450.49545913219
21.1745,439.845895020188
21.2041,426.388832828793
21.2337,412.710729902455
21.2633,403.153432032302
21.2929,387.922300706357
21.3225,398.887655566767
21.3521,417.92462987887
21.3818,390.012445341402
21.4114,389.82946518668
21.441,421.21870794078
21.4706,400.30474268416
21.5002,393.999663639421
21.5298,419.954591321898
21.5594,414.788021534321
21.589,393.56912209889
21.6186,388.365623948873
21.6483,394.456258411844
21.6779,391.577867473932
21.7075,378.2256979482
21.7371,375.676985195155
21.7667,369.685166498486
21.7963,399.691220988903
21.8259,410.435397039031
21.8555,426.566094853683
21.8851,461.6175580222
21.9148,458.824024226109
21.9444,477.639757820382
21.974,568.332660612176
22.0036,672.501849983177
22.0332,762.799461641989
22.0628,738.693239152377
22.0924,672.694584594683
22.122,575.246298788699
22.1516,499.42179616549
22.1813,466.704002690884
22.2109,449.100269179004
22.2405,456.068617558023
22.2701,427.457450386812
22.2997,432.744279946167
22.3293,426.420787083757
22.3589,428.519677093844
22.3885,451.149394347241
22.4181,436.774638412379
22.4478,439.305751765892
22.4774,457.726783310901
22.507,476.211234443324
22.5366,461.052472250255
22.5662,477.38076017491
22.5958,513.777254374159
22.6254,505.666330306087
22.655,509.313824419778
22.6846,523.085464333782
22.7143,564.098890010091
22.7439,593.162462159435
22.7735,647.664199192459
22.8031,728.629330642447
22.8327,835.282542885976
22.8623,1033.967025572
22.8919,1328.6444668685
22.9215,1768.35250588629
22.9511,2495.11978465685
22.9808,3941.51496804567
23.0104,6495.46922300715
23.04,9775.65455768583
23.0696,11435.7510094213
23.0992,10234.8419105282
23.1288,7705.01513622597
23.1584,5089.61641991935
23.188,3124.42515977118
23.2176,1992.31449714093
23.2473,1372.89030955588
23.2769,1081.92061890346
23.3065,933.714429868819
23.3361,811.761776581431
23.3657,702.614530776996
23.3953,630.786074672047
23.4249,623.046433378197
23.4545,606.177598385466
23.4841,564.687184661958
23.5137,554.765814266487
23.5434,536.213925327951
23.573,502.021527077027
23.6026,480.171543895057
23.6322,491.062920592193
23.6618,473.707029936091
23.6914,462.809619912546
23.721,477.254374158816
23.7506,491.662966700301
23.7802,482.901446350486
23.8099,467.868775235533
23.8395,501.145644130508
23.8691,494.335015136225
23.8987,490.614401076717
23.9283,536.44500504541
23.9579,610.981163807609
23.9875,706.346904441449
24.0171,838.940127817025
24.0467,1011.14328960646
24.0764,1043.94752774974
24.106,962.161507402425
24.1356,853.291288261015
24.1652,675.325597040031
24.1948,567.191117092865
24.2244,513.714429868827
24.254,457.969727547932
24.2836,453.994616419919
24.3132,460.298015472587
24.3429,449.617894382777
24.3725,429.951547779272
24.4021,457.869828456105
24.4317,458.968045745039
24.4613,439.003364737551
24.4909,410.123444332325
24.5205,412.930373360239
24.5501,443.096904441455
24.5797,384.013790783721
24.6094,379.89202825429
24.639,399.863773965691
24.6686,398.312584118439
24.6982,387.602421796166
24.7278,388.127144298688
24.7574,389.519851951549
24.787,380.004036326942
24.8166,421.90110998991
24.8462,422.968034993272
24.8759,444.5438950555
24.9055,439.388160107636
24.9351,403.789030955585
24.9647,391.047763202153
24.9943,415.637739656912
25.0239,404.056527590848
25.0535,401.463504877228
25.0831,405.501177262025
25.1127,406.640766902118
25.1424,383.886944818305
25.172,402.718466195762
25.2016,433.572822065254
25.2312,433.046433378196
25.2608,438.846619576186
25.2904,448.409687184663
25.32,451.318977119784
25.3496,417.650857719474
25.3792,393.820383451059
25.4089,410.86406460296
25.4385,429.987218298015
25.4681,422.607467204843
25.4977,429.651413189771
25.5273,432.765556676759
25.5569,451.522704339051
25.5865,433.683714670257
25.6161,454.851664984863
25.6457,435.551294988227
25.6754,422.912209889001
25.705,427.409152086137
25.7346,424.718129835183
25.7642,428.582240161453
25.7938,423.841184387618
25.8234,410.523377060209
25.853,415.011772620249
25.8826,424.076379542395
25.9122,439.708375378405
25.9419,438.913218970736
25.9715,395.930686406459
26.0011,417.044399596367
26.0307,406.317860746723
26.0603,453.798788694481
26.0899,463.864783047428
26.1195,410.208543558693
26.1491,449.822065253952
26.1787,429.56594885599
26.2084,458.574503868146
26.238,464.456104944501
26.2676,459.980484522206
26.2972,485
26.3268,486.103599058191
26.3564,505.028263795427
26.386,553.29969727548
26.4156,581.152034981496
26.4452,701.361372812928
26.4748,879.893710057194
26.5045,1142.43491422806
26.5341,1196.8465679677
26.5637,1201.16548940465
26.5933,1451.41641439628
26.6229,2103.41049798117
26.6525,1731.30507904472
26.6821,1425.30171543896
26.7117,1322.5294315506
26.7413,899.125168236876
26.771,795.775647494115
26.8006,766.8150016818
26.8302,712.055499495456
26.8598,637.37853297443
26.8894,634.028254288597
26.919,597.510258997648
26.9486,570.481493943473
26.9782,511.331987891022
27.0078,550.883955600404
27.0375,547.136271870794
27.0671,541.189707366296
27.0967,533.28792465523
27.1263,576.198183041722
27.1559,545.509586276488
27.1855,524.975445677767
27.2151,471.922973427517
27.2447,530.281965006732
27.2743,484.262361251265
27.304,511.935418768922
27.3336,514
27.3632,492.632357887654
27.3928,534.458795829127
27.4224,572.982503364739
27.452,603.487386478303
27.4816,640.651194080051
27.5112,646.723418573351
27.5408,665.06929027918
27.5705,613.755129498824
27.6001,629.561238223417
27.6297,598.920282542885
27.6593,581.654894046418
27.6889,665.903095558548
27.7185,628.530440632355
27.7481,648.306760847628
27.7777,630.187016481669
27.8073,683.44851951548
27.837,680.722838883283
27.8666,697.988227379751
27.8962,749.104979811573
27.9258,789.478304742683
27.9554,845.168853010424
27.985,865.001009421265
28.0146,838.375042045076
28.0442,903.353178607474
28.0738,966.173283983853
28.1035,1165.80827447022
28.1331,1409.37369660276
28.1627,1569.83546433377
28.1923,1432.69727547932
28.2219,1202.13420787083
28.2515,1093.12277161117
28.2811,1005.38223418574
28.3107,970.343760511268
28.3403,962.009081735621
28.37,971.366756393001
28.3996,947.826437941475
28.4292,932.323578876555
28.4588,927.646029609691
28.4884,927
28.518,963.471241170534
28.5476,977.85935397039
28.5772,986.675748402286
28.6068,1037.84493777329
28.6365,1000.39098250337
28.6661,1019.63336696939
28.6957,1027.23107971746
28.7253,1038.74427994616
28.7549,1068.34275142953
28.7845,1111.0861083081
28.8141,1226.12815338044
28.8437,1271.05753701211
28.8733,1324.97544567776
28.903,1392.72317524386
28.9326,1411
28.9622,1612.26471577532
28.9918,1781.73259334006
29.0214,1974.97543741587
29.051,2177.38008745376
29.0806,2491.80322906154
29.1102,2888.37415881562
29.1398,3517.67810292633
29.1695,4449.84359233097
29.1991,5860.43741588147
29.2287,8175.96400941794
29.2583,11874.0803901782
29.2879,17913.1009081732
29.3175,28628.7267833108
29.3471,50669.6666666653
29.3767,90282.8604103589
29.4063,127289.892328398
29.4359,124120.922300705
29.4656,104574.670030273
29.4952,83559.6016150736
29.5248,54572.4672048433
29.5544,30815.8940464196
29.584,18010.0275908474
29.6136,11584.8637739653
29.6432,8129.96468213927
29.6728,6116.22207267827
29.7024,4809.16347124105
29.7321,3869.09081735615
29.7617,3286.80080753704
29.7913,2872.3773965691
29.8209,2543.14799865453
29.8505,2236.36024217959
29.8801,2071.20592193809
29.9097,1952.81937436931
29.9393,1794.51463168515
29.9689,1659.52994616419
29.9986,1553.45745038681
30.0282,1508.95021863438
30.0578,1452.58445491251
30.0874,1363.39858728556
30.117,1314.68483013791
30.1466,1320.03936742934
30.1762,1277.49445005046
30.2058,1202.37436932392
30.2354,1163.37786002692
30.2651,1140.94550958628
30.2947,1134.80491086445
30.3243,1101.87453750421
30.3539,1101.49461641992
30.3835,1113.13824419778
30.4131,1078.94382778339
30.4427,1100.73216689098
30.4723,1151.46787756475
30.5019,1162.97275479314
30.5316,1185.58815612382
30.5612,1192.74268415742
30.5908,1246.57181298351
30.6204,1360.50000000001
30.65,1460.54591321897
30.6796,1570.03935418769
30.7092,1712.74966352624
30.7388,1983.16414396232
30.7684,2349.26807938107
30.7981,2893.95558546435
30.8277,3722.97040026905
30.8573,5118.06962663967
30.8869,7706.29162462174
30.9165,11960.2503364739
30.9461,16610.0131180627
30.9757,17258.9414732592
31.0053,14343.1261776583
31.0349,11931.0053817694
31.0646,8871.1668348466
31.0942,5506.4835127862
31.1238,3599.2674066599
31.1534,2683.03329969731
31.183,2124.35464333781
31.2126,1786.93037336025
31.2422,1642.12041708712
31.2718,1561.89872139973
31.3014,1570.05953582241
31.3311,1667.58930373361
31.3607,1944.03498150016
31.3903,2477.43943472406
31.4199,3199.87588294648
31.4495,3830.85469223006
31.4791,3738.2759084791
31.5087,3281.1735620585
31.5383,2832.67238479653
31.5679,2178.70457604303
31.5976,1585.16111671713
31.6272,1253.65590312815
31.6568,1081.33109017497
31.6864,989.451395896399
31.716,872.891355533138
31.7456,778.113055181698
31.7752,721.503531786075
31.8048,705.540531449713
31.8344,698.336473755045
31.8641,655.324587958291
31.8937,652.666666666667
31.9233,646.381432896065
31.9529,637.701211305519
31.9825,653.271442986886
32.0121,666.705684493777
32.0417,607.945154777928
32.0713,597.461150353179
32.1009,600.067944836865
32.1306,595.548115746967
32.1602,551.209889001009
32.1898,549.057854019509
32.2194,552.551480484522
32.249,533.864783047429
32.2786,497.124789774638
32.3082,498.615410497981
32.3378,493.090480995627
32.3674,490.147325933401
32.397,508.410023545243
32.4267,527.738896366084
32.4563,474.122098890008
32.4859,446.310124453415
32.5155,460.255720053835
32.5451,469.55297679112
32.5747,450.293642785068
32.6043,430.601615074028
32.6339,455.466868483014
32.6635,452.876892028254
32.6932,437.174966352624
32.7228,436.376387487387
32.7524,452.364278506559
32.782,444.292059219381
32.8116,457.026908846282
32.8412,477.277497477296
32.8708,442.835800807537
32.9004,458.365960309453
32.93,469.401278170201
32.9597,446.633703329971
32.9893,464.867429340511
33.0189,458.522704339052
33.0485,449.656239488731
33.0781,448.50269179004
33.1077,489.390514631687
33.1373,475.517658930372
33.1669,480.434387617761
33.1965,422.841237806928
33.2262,459.632357887655
33.2558,463.922611036339
33.2854,464.060544904135
33.315,445.009081735614
33.3446,497.436069986541
33.3742,501.529431550621
33.4038,555.493777329297
33.4334,613.639973082095
33.463,739.982845610481
33.4927,907.837537840575
33.5223,1129.51496804577
33.5519,1339.06864064602
33.5815,1190.01681802894
33.6111,1039.17255297679
33.6407,972.115746971734
33.6703,797.124789774652
33.6999,633.639421459798
33.7295,558.802153432029
33.7592,525.735620585267
33.7888,517.556004036324
33.8184,457.047106325707
33.848,444.49310460814
33.8776,426
33.9072,424.534320323015
33.9368,405.313824419778
33.9664,425.640094180962
33.996,434.708375378405
34.0257,411.524562584118
34.0553,405.194752774977
34.0849,448.887991927345
34.1145,467.479475100942
34.1441,455.359905819037
34.1737,465.031617894383
34.2033,466.763122476447
34.2329,493.373360242179
34.2625,468.017154389506
34.2922,520.019179004039
34.3218,466.068953918601
34.3514,471.10359905819
34.381,482.191790040378
34.4106,520.017154389505
34.4402,536.942818701648
34.4698,536.007736293306
34.4994,532.047106325706
34.529,485.758829465184
34.5587,507.605449041371
34.5883,467.882610158093
34.6179,529.363391655447
34.6475,527.11974436596
34.6771,477.749747729568
34.7067,515.427321668909
34.7363,506.469895728221
34.7659,490.753447695929
34.7955,520.363391655448
34.8252,526.739320551632
34.8548,521.339051463169
34.8844,501.271870794077
34.914,544.883955600406
34.9436,494.018836192395
34.9732,540.039030955586
35.0028,542.155398587285
35.0324,528.231079717457
35.062,531.567776656576
35.0917,567.601278600267
35.1213,621.876555667678
35.1509,627
35.1805,635.100605652758
35.2101,714.824083417424
35.2397,789.068953918605
35.2693,963.808882907129
35.2989,1095.3683148335
35.3285,1173.25731584259
35.3581,1169.75706594886
35.3878,1065.79717457115
35.4174,1030.14026236125
35.447,897.238896366083
35.4766,832.241170534817
35.5062,755.633703329967
35.5358,732.067967698519
35.5654,672.338378742009
35.595,706.710393541878
35.6246,681.431214261687
35.6543,725.309555854645
35.6839,735.83417423478
35.7135,872.087453750418
35.7431,1007.34185733513
35.7727,1211.52774974772
35.8023,1536.13992600069
35.8319,1960.93674293407
35.8615,2670.67339387825
35.8911,4080.04540867799
35.9208,6214.15746971714
35.9504,9923.30474268404
35.98,12719.7174571142
36.0096,11774.2967698521
36.0392,10162.1987891019
36.0688,9143.93440968708
36.0984,7261.57719475262
36.128,4997.28061911185
36.1576,3352.88530104281
36.1873,2270.79986545573
36.2169,1706.72543741588
36.2465,1381.64682139254
36.2761,1123.88900100908
36.3057,986.362718707934
36.3353,847.447359569455
36.3649,759.982845610497
36.3945,691.300807537017
36.4241,688.419778002018
36.4538,655.870164816681
36.4834,656.582772543741
36.513,686.645139589639
36.5426,630.435923309785
36.5722,599.269179004038
36.6018,589.167171207535
36.6314,586.707702657249
36.661,571.526740665996
36.6906,543.325033647376
36.7203,522.82744702321
36.7499,483.30440632358
36.7795,474.897711978466
36.8091,522.557685839224
36.8387,523.247225025227
36.8683,526.862718707941
36.8979,547.799865455769
36.9275,513.56239488732
36.9571,480.380215343203
36.9868,519.104608139929
37.0164,531.457114026236
37.046,526.654777927322
37.0756,534.80625630676
37.1052,535.123107971746
37.1348,551.611503531789
37.1644,588.779946164198
37.194,601.466532122435
37.2236,646.545576858389
37.2533,741.217025571996
37.2829,849.010427177922
37.3125,1021.35015136229
37.3421,1293.39266487216
37.3717,1427.66801210898
37.4013,1306.53918600739
37.4309,1155.10868102288
37.4605,1124.1644803229
37.4901,1026.07769929363
37.5198,791.648721399751
37.5494,672.754456777665
37.579,648.877564749413
37.6086,619.748317631227
37.6382,628.166498486377
37.6678,625.84561049445
37.6974,608.460477632022
37.727,605.563257065949
37.7566,586.992936427848
37.7863,585.950554994953
37.8159,541.062584118443
37.8455,487.206189034646
37.8751,505.626303397239
37.9047,524.294751009421
37.9343,482.811301715437
37.9639,471.89572822065
37.9935,507.319650067296
38.0231,484.3165153044
38.0528,482.382441977799
38.0824,508.92462987887
38.112,479.209889001009
38.1416,450.448705011772
38.1712,446.988227379751
38.2008,463.057200538356
38.2304,479.502522704339
38.26,479
38.2896,472.644347240915
38.3192,472.78573831147
38.3489,469.842583249244
38.3785,469.548452220725
38.4081,491.931382441978
38.4377,521.423477968383
38.4673,502.731493943476
38.4969,497.387151025893
38.5265,538.793138244198
38.5561,525.468034993269
38.5857,504.106289942818
38.6154,500.525395223679
38.645,531.446164199192
38.6746,560.082071981163
38.7042,559.204843592332
38.7338,553
38.7634,559.837146702558
38.793,566.884291960982
38.8226,580.750756811301
38.8522,630.530282637956
38.8819,649.796165489404
38.9115,639.145980491086
38.9411,684.496635262449
38.9707,707.773629330645
39.0003,737.002018163476
39.0299,808.176985195155
39.0595,856.967373023867
39.0891,978.973427514301
39.1187,1076.49528936742
39.1484,1191.42953245877
39.178,1456.02926337031
39.2076,1834.09855364945
39.2372,2351.14771197852
39.2668,3040.15102589972
39.2964,3988.0978809283
39.326,5707.04744279941
39.3556,8638.57383114675
39.3852,12901.6562394885
39.4149,16814.943472409
39.4445,17361.3841237806
39.4741,15134.9798183653
39.5037,13466.0084118439
39.5333,11915.9653548606
39.5629,9170.44365960316
39.5925,6333.7486541049
39.6221,4237.41170534824
39.6517,3032.79683821067
39.6814,2308.63021534315
39.711,1834.67406659941
39.7406,1506.59199461826
39.7702,1262.53683148336
39.7998,1078
39.8294,1040.36999663638
39.859,930.875882946513
39.8886,880.248990578737
39.9182,818.495459132188
39.9479,723.914228052471
39.9775,715.541049798113
40.0071,694.373023881599
40.0367,714.84224688867
40.0663,649.179676985194
40.0959,648.568113017154
40.1255,663.810965354863
40.1551,634.448183041724
40.1847,610.281533804238
40.2144,613.485031954256
40.244,631.702320887992
40.2736,628.714333781964
40.3032,614.611167171207
40.3328,627
40.3624,621.140309555853
40.392,600.212916246216
40.4216,602.876892028254
40.4512,612.859353970392
40.4809,620.337033299698
40.5105,602.21661621258
40.5401,599.27355316285
40.5697,646.376387487388
40.5993,622.987218298012
40.6289,597.101615074022
40.6585,639.067608476287
40.6881,654.4137235116
40.7177,705.692462987886
40.7474,719.561049445005
40.777,749.626303397243
40.8066,762.680457450387
40.8362,770.482503364736
40.8658,827.903128153378
40.8954,876.139926000673
40.925,972.131897711983
40.9546,1027.79044735958
40.9842,1110.53077699294
41.0139,1402.37954239568
41.0435,1659.80221997986
41.0731,2149.72889337367
41.1027,2845.45222072681
41.1323,3474.10763538514
41.1619,3342.54793138247
41.1915,2877.66487213997
41.2211,2716.18096199124
41.2507,2526.87386478305
41.2803,2161.04742684161
41.31,1673.57200538363
41.3396,1278.72048435925
41.3692,1124.43121426169
41.3988,1014.37752355315
41.4284,922.608139926006
41.458,852.696266397578
41.4876,784.38526244953
41.5172,772.980491086444
41.5468,728.82038345106
41.5765,728.531965006731
41.6061,762.201479986544
41.6357,646.614530776993
41.6653,677.230484522208
41.6949,679.098890010092
41.7245,612.397241843257
41.7541,597.199865410498
41.7837,603.351160443997
41.8133,614.651530440631
41.843,602.743356878575
41.8726,672.575370121133
41.9022,600.89169189371
41.9318,594.344096871847
41.9614,624.932705248991
41.991,615.024217961655
42.0206,623.984863773965
42.0502,629.963673057517
42.0798,608.222072678332
42.1095,570.421796165489
42.1391,565.077362933064
42.1687,622.848586810224
42.1983,601.549276824755
42.2279,653.474268415737
42.2575,649.193808882908
42.2871,646.109989909182
42.3167,651.753784056509
42.3463,700.684157416745
42.376,690.599259757737
42.4056,707.091826437941
42.4352,715.561385805583
42.4648,737.645693135934
42.4944,646.260343087804
42.524,738.833501513611
42.5536,715.365074024228
42.5832,706.53212243525
42.6128,720.713757147661
42.6425,690.757065948857
42.6721,739.215607130839
42.7017,778.587285570131
42.7313,824.587819650073
42.7609,829
42.7905,807.462159434916
42.8201,907.733849259751
42.8497,917.332996972755
42.8793,994.847292297341
42.909,1143.72822065255
42.9386,1352.8606998654
42.9682,1652.94080053818
42.9978,1917.54692230071
43.0274,2496.18977119782
43.057,3528.67137571482
43.0866,5136.97880928337
43.1162,7999.68909824998
43.1458,12451.5358224013
43.1755,15928.2563067605
43.2051,14480.381561238
43.2347,11998.9017827109
43.2643,11076.7692566431
43.2939,10277.9825033648
43.3235,7905.37537840565
43.3531,5396.30642448721
43.3827,3632.34073326587
43.4123,2604.22812920597
43.442,1917.88731920621
43.4716,1604.77194752775
43.5012,1389.91184387618
43.5308,1223.26269761183
43.5604,1171.29095190044
43.59,1094.68438761777
43.6196,975.124117053473
43.6492,934.676757484022
43.6788,879.545760430692
43.7085,959.998318197122
43.7381,976.159771274806
43.7677,1057.72072678331
43.7973,1118.23107971745
43.8269,1055.13252606794
43.8565,950.957940780632
43.8861,930.27177934746
43.9157,902.799192734614
43.9453,852.059872182979
43.975,795.61440107671
44.0046,721.854355869496
44.0342,664.252606794482
44.0638,694.849259757743
44.0934,647.064581231081
44.123,638.887655566766
44.1526,616.99663526245
44.1822,617.420114362597
44.2118,602.137235116046
44.2414,623.62045760431
44.2711,600.078708375377
44.3007,586.399932727884
44.3303,576.562584118439
44.3599,562.318197107298
44.3895,538.071644803226
44.4191,589.770265724845
44.4487,607.141318977121
44.4783,599.302388160107
44.5079,604.030272452069
44.5376,610.346231493943
44.5672,598.700302724521
44.5968,596.62428523377
44.6264,647.578061911171
44.656,659.955936764212
44.6856,682.152371342078
44.7152,715.37920592194
44.7448,739.067272115706
44.7744,788.278170198452
44.8041,883.036339165541
44.8337,1023.54053144971
44.8633,1235.90514631683
44.8929,1605.79576043065
44.9225,1963.86982845611
44.9521,2049.13185334679
44.9817,1816.03329969728
45.0113,1604.06594885599
45.0409,1588.60376723848
45.0706,1486.39589640095
45.1002,1286.99730820998
45.1298,1059.74705684491
45.1594,910.684157416745
45.189,838.417227456252
45.2186,778.217288933731
45.2482,740.089135553314
45.2778,735.262449528936
45.3074,697.61856710394
45.3371,679.101917255296
45.3667,725.833109017489
45.3963,755.667003027245
45.4259,725.576185671037
45.4555,712.579212916244
45.4851,700.747981157468
45.5147,667.998654557683
45.5443,628.224688866458
45.5739,642.156123822349
45.6036,647.957954927687
45.6332,634.019172552977
45.6628,610.6864064603
45.6924,629.049781365636
45.722,648.89101917255
45.7516,635.170255720053
45.7812,641.971745711402
45.8108,672.441977800197
45.8404,659.979475100946
45.8701,619.905819038007
45.8997,634.856374032964
45.9293,639.086810228802
45.9589,633.112008072653
45.9885,623.799529095189
46.0181,607.548267743022
46.0477,630.254374158821
46.0773,639.685166498489
46.1069,614.816683484696
46.1366,611.149394347238
46.1662,628.74268415741
46.1958,669.801547258661
46.2254,664.415208613727
46.255,667.817356205854
46.2846,676.560713084428
46.3142,693.86944818304
46.3438,734.150353178609
46.3734,749.071644803231
46.4031,743.465679676983
46.4327,728.975782038346
46.4623,721.306760847632
46.4919,691.711738984192
46.5215,704.492261103632
46.5511,734.026236125126
46.5807,754.735284224691
46.6103,784.092193808883
46.6399,795
46.6696,805.109653548608
46.6992,848.690444145357
46.7288,893.760847628658
46.7584,919.443323242518
46.788,986.398048452216
46.8176,1055.63202152708
46.8472,1145.58829465186
46.8768,1254.13122476447
46.9064,1368.19778002018
46.9361,1540.35452404979
46.9657,1725.33411843874
46.9953,2053.97679112004
47.0249,2565.8415741674
47.0545,3290.55297679106
47.0841,4160.34454912515
47.1137,5179.31247897735
47.1433,5731.79112008073
47.1729,5574.31022880217
47.2025,5354.95190043727
47.2322,5315.06626303396
47.2618,5227.18169582772
47.2914,5060.27783383792
47.321,4828.42179616549
47.3506,4986.26917900403
47.3802,5548.50521358908
47.4098,6746.40464177596
47.4394,8609.42193808895
47.469,11378.8173562054
47.4987,14652.9344096876
47.5283,17109.3817692567
47.5579,17026.6985195153
47.5875,15244.6881937437
47.6171,13792.2361251262
47.6467,12782.4690444147
47.6763,11196.0837537843
47.7059,8867.83686511958
47.7355,6530.63122476429
47.7652,4989.61654894051
47.7948,3825.39858728551
47.8244,3116.96063257065
47.854,2574.0417087117
47.8836,2188.24554322236
47.9132,1940.24495289367
47.9428,1733.50454086781
47.9724,1631.91826437941
48.002,1583.28802153432
48.0317,1493.38984191053
48.0613,1469.84460141271
48.0909,1465.2774974773
48.1205,1548.87752355316
48.1501,1594.12344433233
48.1797,1668.25630676085
48.2093,1732.01211305518
48.2389,2007.20484359236
48.2685,2240.37571476623
48.2982,2649.84589502024
48.3278,3072.67272115703
48.3574,3711.15237134208
48.387,4761.79811574695
48.4166,6199.36326942472
48.4462,8507.67473932046
48.4758,11583.7631224767
48.5054,15425.4022872518
48.535,17005.8859737639
48.5647,15962.0252270435
48.5943,14024.4037685062
48.6239,12502.8953918601
48.6535,11820.9956273123
48.6831,10249.0851278601
48.7127,7777.6791120081
48.7423,5692.58594012791
48.7719,4359.61709286667
48.8015,3305.09418096199
48.8312,2695.47090480999
48.8608,2223.13156123819
48.8904,1787.86680121089
48.92,1647.07433568786
48.9496,1465.05652759083
48.9792,1316.75681130172
49.0088,1280.50857719476
49.0384,1139.9767833109
49.068,1068.44466868483
49.0977,1109.84258324924
49.1273,1049.26101580894
49.1569,984.028263795421
49.1865,1031.05650857719
49.2161,1032.93844601413
49.2457,1050.66890982503
49.2753,1066.44870501178
49.3049,1117.99293642785
49.3345,1068.1601615074
49.3642,1041.32896064582
49.3938,936.652875882948
49.4234,892.411843876181
49.453,868.170198452734
49.4826,785.600403632693
49.5122,819.041049798113
49.5418,744.825092499156
49.5714,724.768247561389
49.601,672.000000000003
49.6307,669.003027245207
49.6603,662.03532974428
49.6899,661.009418096199
49.7195,629.441305079043
49.7491,610.338829071333
49.7787,615.866801210897
49.8083,686.086781029266
49.8379,675.39804845222
49.8675,662.454759502188
49.8972,662.964009418096
49.9268,698.518506056526
49.9564,658.909182643788
49.986,651.29263370333
50.0156,640.581090174966
50.0452,705.997309115372
50.0748,735.338042381435
50.1044,811.751009421263
50.134,855.131516986206
50.1636,811.716784392863
50.1933,826.49310460814
50.2229,741.464333781955
50.2525,854.944500504551
50.2821,890.62058526741
50.3117,886.64535666218
50.3413,839.923309788091
50.3709,945.588294651871
50.4005,1084.19784656798
50.4301,1164.91052808611
50.4598,1446.1298351833
50.4894,1692.54374158813
50.519,2083.96232761519
50.5486,2240.85771947528
50.5782,2297.89502018843
50.6078,2058.21930709722
50.6374,1894.83989236463
50.667,1840.61049445006
50.6966,1763.98082099597
50.7263,1534.90817356205
50.7559,1344.09216279851
50.7855,1199.37382234184
50.8151,1162.84561049445
50.8447,1099.69727547931
50.8743,1113.8368102288
50.9039,1125.63303060881
50.9335,1185.55768583922
50.9631,1370.3384925976
50.9928,1586.69693911875
51.0224,1831.46518668011
51.052,2114.88156123825
51.0816,2471.79145644126
51.1112,2405.15775311133
51.1408,2091.54172274564
51.1704,2008.29364278507
51.2,1887.32357887655
51.2296,1793.16784392869
51.2593,1630.05383580083
51.2889,1430.02690884627
51.3185,1249.20282542884
51.3481,1132.81292059218
51.3777,914.268415741686
51.4073,847.367978472923
51.4369,791.864064602956
51.4665,746.317860746722
51.4961,727.994954591321
51.5258,668.77523553163
51.5554,620.184998318197
51.585,603.330978809284
51.6146,586.262449528936
51.6442,570.011099899091
51.6738,533.230070635724
51.7034,503.621803499324
51.733,493.400941809621
51.7626,499.869828456106
51.7923,464.420787083753
51.8219,463.205921938087
51.8515,481.002354524049
51.8811,451.619239825092
51.9107,459.320323014808
51.9403,475.932391523712
51.9699,447.312142616885
51.9995,449.4333781965
52.0291,446.793138244199
52.0588,437.923309788093
52.0884,483.946500672942
52.118,471.434914228058
52.1476,434.666666666668
52.1772,487.939098250325
52.2068,459.440295997318
52.2364,443.693239152368
52.266,461.093171880255
52.2956,458.901076716018
52.3253,447.266397578204
52.3549,441.719811638076
52.3845,448.631224764468
52.4141,432.154389505547
52.4437,450.110998990921
52.4733,450.551816958281
52.5029,431.335351496805
52.5325,436.447023208878
52.5621,425.29946164199
52.5918,423.142280524722
52.6214,424.15909855365
52.651,437.826379542397
52.6806,448.40329633367
52.7102,423.714429868819
52.7398,432.878869448178
52.7694,442.241170534814
52.799,420.931718802556
52.8286,416.32694248234
52.8583,407.789703903099
52.8879,417.9545913219
52.9175,412.632694248231
52.9471,399.246298788695
52.9767,398.770602085436
53.0063,400.317860746721
53.0359,401.902422611036
53.0655,412.980491086445
53.0951,401.932391523709
53.1247,402.76009421265
53.1544,422.210898082744
53.184,418.630676084764
53.2136,405.627860026916
53.2432,400.567103935419
53.2728,406.143962327615
53.3024,409.486377396569
53.332,417.15074024226
53.3616,413.885301042715
53.3912,415.020181634715
53.4209,395.500000000003
53.4505,391.268752102258
53.4801,414.577194752775
53.5097,415.846567967699
53.5393,407.026572485705
53.5689,402.487386478304
53.5985,407.883580080755
53.6281,385.893037336026
53.6577,386.770938446011
53.6874,412.045087483177
53.717,402.871510258995
53.7466,398.14968045745
53.7762,413.191117092867
53.8058,417.720484359235
53.8354,427.774638412378
53.865,407.596367305753
53.8946,402.493270524901
53.9242,423.951564076693
53.9539,426.185671039355
53.9835,415.630888290719
54.0131,367.570803901784
54.0427,392.70366633031
54.0723,434.917227456258
54.1019,424.452068617558
54.1315,415.466532122437
54.1611,413.002691790043
54.1907,413.642112344429
54.2204,389.056844937776
54.25,398.968371467024
54.2796,403.459132189702
54.3092,428.382105617222
54.3388,425.600403632695
54.3684,424.108344549124
54.398,429.153380423815
54.4276,415.781365623951
54.4572,401.967698519517
54.4869,417.277833837874
54.5165,422.045072317521
54.5461,411.025572005382
54.5757,420.875882946519
54.6053,421.855028590652
54.6349,435.676985195155
54.6645,433.990918264381
54.6941,437.239152371341
54.7237,444.925975773892
54.7534,434.022199798179
54.783,464.769929364278
54.8126,470.99057873486
54.8422,464.554994954588
54.8718,472.536831483353
54.9014,464.067944836866
54.931,462.445491251689
54.9606,421.870164816684
54.9902,417.231079717457
55.0199,434.635262449528
55.0495,436.861755802218
55.0791,420.186343760514
55.1087,439.876850605654
55.1383,446.453750420452
55.1679,439.415741675075
55.1975,430.416218034995
55.2271,401.040363269427
55.2567,436.909855364952
55.2864,431.36776581427
55.316,446.742347796839
55.3456,431.58324924319
55.3752,418.869492095525
55.4048,426.961641991926
55.4344,406.296670030273
55.464,399.783047426848
55.4936,450.63795423957
55.5232,412.413050790446
55.5529,432.173225697952
55.5825,446.35397039031
55.6121,445.478641103262
55.6417,450.379414732594
55.6713,446.987213997308
55.7009,444.984527413389
55.7305,447.371678439288
55.7601,427.79542395693
55.7897,440.28657921292
55.8194,433.602421796168
55.849,470.950201884252
55.8786,449.938782374707
55.9082,461.92196434578
55.9378,469.132189707365
55.9674,433.36810228802
55.997,428.818365287588
56.0266,455.962663975775
56.0562,485.426985195154
56.0858,442.998990918265
56.1155,482.79515640767
56.1451,514.947510094212
56.1747,541.053481331987
56.2043,557.445677766567
56.2339,578.461641991925
56.2635,572.219979818368
56.2931,602.478977463841
56.3227,614.655787348588
56.3523,690.129498822736
56.382,774.142953245886
56.4116,876.078708375387
56.4412,1003.60699865413
56.4708,1254.97140935085
56.5004,1528.57954927682
56.53,1992.12247644693
56.5596,2533.97376387484
56.5892,2932.02186343758
56.6188,2769.22139973086
56.6485,2437.16380760176
56.6781,2206.99360914901
56.7077,2209.9401076716
56.7373,2058.17658930374
56.7669,1880.28859737636
56.7965,1607.74966352619
56.8261,1279.23410696265
56.8557,1123.28052472251
56.8853,955.253028263775
56.915,821.08072653885
56.9446,822.604103599059
56.9742,810.545576858387
57.0038,768.316621803504
57.0334,851.696266397575
57.063,882.299697275476
57.0926,950.593203230149
57.1222,991.761183989234
57.1518,1064.9323915237
57.1815,1219.12045760429
57.2111,1440.19576185669
57.2407,1633.34746047761
57.2703,1928.70232088797
57.2999,2472.54643337826
57.3295,3117.52169525724
57.3591,4187.79952909508
57.3887,5285.90746971735
57.4183,6276.30440632368
57.448,6344.7726202489
57.4776,5553.16750756808
57.5072,5032.63930013458
57.5368,4756.44836865118
57.5664,4600.15775311134
57.596,4319.72947510096
57.6256,3474.78405650848
57.6552,2861.92330978811
57.6848,2247.50874831763
57.7145,1805.914564413
57.7441,1515.53985872861
57.7737,1302.33041722747
57.8033,1161.5671039354
57.8329,1079.40161453077
57.8625,1003.54643337821
57.8921,986.085771947527
57.9217,882.718466195764
57.9513,940.481830417217
57.981,913.796165489405
58.0106,999.572822065256
58.0402,1089.3306424487
58.0698,1205.4737550471
58.0994,1271.09384460142
58.129,1321.92869155736
58.1586,1271.15780619111
58.1882,1115.9421459805
58.2178,1078.41574167508
58.2475,1039.66689098251
58.2771,1009.03834510595
58.3067,874.831146989545
58.3363,812.94246298789
58.3659,702.548267743017
58.3955,644.351160444003
58.4251,608.456931359354
58.4547,562.911200807266
58.4843,580.755129498823
58.514,552.80793810965
58.5436,544.348586810229
58.5732,493.0736629667
58.6028,496.706357214932
58.6324,513.819650067295
58.662,495.167507568116
58.6916,486.783047426842
58.7212,506.803499327051
58.7508,544.628994281874
58.7805,521.20719811638
58.8101,584.954912516834
58.8397,676.34981500167
58.8693,662.372351160447
58.8989,706.676985195167
58.9285,728.962663975781
58.9581,704.076017490746
58.9877,670.750336473762
59.0173,597.56710393542
59.0469,614.06727211571
59.0766,629.777329297006
59.1062,618.227119784657
59.1358,558.717793474592
59.1654,518.462159434912
59.195,518.385598923283
59.2246,488.691893710064
59.2542,498.897073662967
59.2838,487.404104979814
59.3134,461.241170534815
59.3431,465.527749747729
59.3727,482.894347240915
59.4023,502.241506895388
59.4319,481.815001681806
59.4615,477.33209959623
59.4911,514.964682139247
59.5207,523.745711402623
59.5503,496.830810628989
59.5799,517.574697173619
59.6096,543.653548604107
59.6392,575.564076690208
59.6688,602.893674293403
59.6984,635.563403969053
59.728,707.483013790796
59.7576,831.31628532972
59.7872,919.916246215942
59.8168,1001.31214261688
59.8464,1021.92597577389
59.8761,943.792129162474
59.9057,936.015136226028
59.9353,940.802153432034
59.9649,894.460141271447
59.9945,850.4655230407
60.0241,813.460969044421
60.0537,792.125462495797
60.0833,718.494450050444
60.1129,661.210898082743
60.1426,610.767496635263
60.1722,593.556340396906
60.2018,619.024217961659
60.2314,623.563257065949
60.261,619.196770938446
60.2906,627.128153380423
60.3202,629.050807537012
60.3498,662.721829801543
60.3794,719.386478304748
60.4091,761.734185733511
60.4387,841.685166498492
60.4683,940.891355533119
60.4979,1073.22678331089
60.5275,1255.99058190379
60.5571,1467.7820383451
60.5867,1838.78271106621
60.6163,2388.38358008073
60.6459,3120.58089471913
60.6756,3930.37806929018
60.7052,4263.81695827726
60.7348,4040.46720484365
60.7644,3596.173225698
60.794,3291.26917900403
60.8236,3201.22536158762
60.8532,3216.53481331988
60.8828,3110.69717362045
60.9124,2904.42246888667
60.9421,2681.39152371341
60.9717,2592.71467025573
61.0013,2749.36259670365
61.0309,2761.93138244198
61.0605,2554.65545087482
61.0901,2337.5660948537
61.1197,2120.79549276827
61.1493,1996.84258324924
61.1789,1994.33445491252
61.2086,1963.23612512614
61.2382,1871.54423141609
61.2678,1767.66520861373
61.2974,1770.92465523039
61.327,1844.77800201816
61.3566,1999.37651413191
61.3862,2179.87655566769
61.4158,2202.28758829465
61.4454,2119.7425975774
61.4751,1972.18701648165
61.5047,1802.25227043391
61.5343,1712
61.5639,1661.98082744703
61.5935,1547.60813992599
61.6231,1396.7336024218
61.6527,1176.68236877523
61.6823,1018.99596367306
61.7119,950.935418768926
61.7416,841.652759084787
61.7712,745.924655230418
61.8008,672.619576185657
61.8304,623.799461641993
61.86,609.940800538176
61.8896,606.475613858058
61.9192,576.643337819649
61.9488,563.018163471246
61.9784,568.142616885291
62.008,543.971063257072
62.0377,571.706357214935
62.0673,552.982845610498
62.0969,531.42934051144
62.1265,523.051463168514
62.1561,494.628657921292
62.1857,481.411032626975
62.2153,483.618775235532
62.2449,488.408678102929
62.2745,498.377060208541
62.3042,479.015477792733
62.3338,475.326606121763
62.3634,469.233097880927
62.393,461.041386271869
62.4226,479.962663975781
62.4522,488.048772283887
62.4818,472.727456258411
62.5114,457.581231079715
62.541,458.646821392531
62.5707,490.704239569314
62.6003,490
62.6299,498.904809956275
62.6595,525.243188698284
62.6891,541.572005383582
62.7187,548.040363269423
62.7483,539.154389505551
62.7779,572
62.8075,581.159098553654
62.8372,602.829128826099
62.8668,620.741588156114
62.8964,741.308779011079
62.926,849.197443659604
62.9556,909.900403768514
62.9852,1083.58694920957
63.0148,1278.42785065593
63.0444,1487.85195154779
63.074,1581.02791792802
63.1037,1597.77766565758
63.1333,1557.50201884253
63.1629,1456.71745711402
63.1925,1306.82038345105
63.2221,1370.66834846956
63.2517,1356.98452220728
63.2813,1267.39219643458
63.3109,1205.33905146316
63.3405,1115.15376850605
63.3702,1014.96367305752
63.3998,1057.47225025227
63.4294,1063.34757738897
63.459,992.747393205519
63.4886,936.462159434926
63.5182,856.937079407796
63.5478,789.606121762532
63.5774,822.517658930374
63.607,814.523889636608
63.6367,772.852674066589
63.6663,697.91826437942
63.6959,643.178271106628
63.7255,612.725437415881
63.7551,562.722838883283
63.7847,560.328960645812
63.8143,549.506056527584
63.8439,507.635385132862
63.8735,517.542885973766
63.9032,508.20457604307
63.9328,516.76723847965
63.9624,513.431886982846
63.992,504.553162853292
64.0216,530.166834846956
64.0512,500.869828456103
64.0808,537.707940780618
64.1104,552.002018163474
64.14,533.728893373694
64.1697,553.623822341859
64.1993,573.034981500167
64.2289,593.612176252936
64.2585,570.449041372354
64.2881,643.756729475094
64.3177,696.092162798521
64.3473,714.275142953252
64.3769,759.104979811566
64.4065,917.653884964696
64.4362,991.60948536831
64.4658,1123.79037685062
64.4954,1297.571476623
64.525,1593.94550958631
64.5546,1860.59152086137
64.5842,2241.8900100907
64.6138,2784.18331651532
64.6434,3394.51682368777
64.673,4137.78540195091
64.7027,4300.34846955936
64.7323,4062.10595358221
64.7619,3534.24764468371
64.7915,3128.04036326943
64.8211,3142.97477295661
64.8507,3080.38143289606
64.8803,2933.49394347241
64.9099,2545.66969391184
64.9395,2164.21426168854
64.9691,1740.74697173617
64.9988,1550.41809619914
65.0284,1284.60040363274
65.058,1226.6796769852
65.0876,1094.94954591324
65.1172,997.939455095876
65.1468,1027.42193808883
65.1764,980.521695257311
65.206,996.92364614867
65.2356,975.388963660836
65.2653,924.119744365962
65.2949,935.988227379754
65.3245,898.771947527745
65.3541,917.351615074027
65.3837,980.906828119755
65.4133,987.839219643458
65.4429,1034.69279946164
65.4725,1158.36730575174
65.5021,1275.19206189035
65.5318,1557.83714670254
65.5614,1852.02589976455
65.591,2192.4012781702
65.6206,2574.61507402422
65.6502,2787.57719475275
65.6798,2742.65287588296
65.7094,2551.72577388963
65.739,2333.35553313154
65.7686,2193.5317860747
65.7983,2100.36629667004
65.8279,2086.399730821
65.8575,1953.18600739993
65.8871,1703.75714766227
65.9167,1492.64401076714
65.9463,1322.80827447022
65.9759,1127.25462495795
66.0055,979.075370121106
66.0351,862.434241506909
66.0648,801.371342078702
66.0944,754.73889636608
66.124,748.654894046418
66.1536,684.800201816343
66.1832,660.353297442801
66.2128,609.93474604777
66.2424,586.845610494452
66.272,553.364737550466
66.3016,551.613185334679
66.3313,545.792129162463
66.3609,491.430877901098
66.3905,485.131561238224
66.4201,481.483350151363
66.4497,483.918600739993
66.4793,456.154441453561
66.5089,452.651866801211
66.5385,440.894046417762
66.5681,430.098586810228
66.5978,434.893037336024
66.6274,421.008072653884
66.657,409.940780619112
66.6866,407.246888664649
66.7162,430.210898082749
66.7458,411.938425302823
66.7754,421.508240834172
66.805,426.528086108308
66.8346,426
66.8643,401.882907133241
66.8939,395.906155398587
66.9235,400.610830810628
66.9531,407.026244952893
66.9827,406.858728557013
67.0123,427.990918264376
67.0419,427.831763122476
67.0715,434.514631685164
67.1011,433.427177934747
67.1308,407.341857335124
67.1604,423.279179280192
67.19,454.928355196774
67.2196,484.491251682375
67.2492,503.502859064918
67.2788,539.696939118737
67.3084,637.44145356663
67.338,755.921291624642
67.3676,834.035654221319
67.3973,871.175916582579
67.4269,853.085127860028
67.4565,769.866464850305
67.4861,699.960645812308
67.5157,644.666890982492
67.5453,653.413387151029
67.5749,708.102926337033
67.6045,698.455585464332
67.6341,632.37537840564
67.6638,618.389505549952
67.6934,562.988896366082
67.723,548.071644803229
67.7526,517.036326942473
67.7822,474.609017496638
67.8118,456.328960645812
67.8414,441.599058190379
67.871,433.617221661621
67.9006,413.071332436077
67.9302,434.062563067604
67.9599,418.133198789093
67.9895,387.089502018843
68.0191,402.336024217965
68.0487,396.074672048436
68.0783,390.539703903094
68.1079,419.038345105947
68.1375,433.196434577868
68.1671,443.243606998654
68.1967,422.070972082071
68.2264,399.756474941138
68.256,395.981830417229
68.2856,409.45812310797
68.3152,425.538513286243
68.3448,406.764468371462
68.3744,395.831146989572
68.404,399.422805247225
68.4336,391.743693239151
68.4632,371.519515477793
68.4929,366.261015808946
68.5225,393.453750420448
68.5521,409.969044414536
68.5817,384.334006054494
68.6113,359.003363605785
68.6409,374.323351278598
68.6705,411.630003363607
68.7001,381.903128153374
68.7297,357.447846567969
68.7594,395.701311806259
68.789,409.246552304071
68.8186,407.436069986538
68.8482,399.468550285906
68.8778,416.246215943492
68.9074,431.321560713085
68.937,430.189098250336
68.9666,446.639085099223
68.9962,487.927346115041
69.0259,517.769179004037
69.0555,561.40766902118
69.0851,635.316178943834
69.1147,707.005383580085
69.1443,806.760511268084
69.1739,888.083753784046
69.2035,1017.12718707941
69.2331,1143.65354860411
69.2627,1102.30474268418
69.2924,974.096231493954
69.322,902.405314497154
69.3516,858.844601412713
69.3812,891.309555854637
69.4108,897.799192734616
69.4404,830.660275815662
69.47,780.592330978811
69.4996,714.059555854672
69.5292,609.622267070299
69.5589,557.086108308102
69.5885,538.83344549125
69.6181,528.985536495121
69.6477,495.093844601412
69.6773,490
69.7069,489.64513958964
69.7365,485.84561049445
69.7661,458.53364737551
69.7957,443.997981836541
69.8254,485.132189707363
69.855,485.177321668915
69.8846,514.675412041709
69.9142,511.580894719136
69.9438,537.2522704339
69.9734,554.213997308213
70.003,563.598721829774
70.0326,638.955264043053
70.0622,641.353970390313
70.0919,696.996636394211
70.1215,806.636730575175
70.1511,919.954239569312
70.1807,1009.27547931382
70.2103,1184.63101244536
70.2399,1362.99798115745
70.2695,1474.18466195763
70.2991,1511.86612848974
70.3287,1487.20053835803
70.3584,1385.3245879583
70.388,1349.19677093845
70.4176,1312.42530282638
70.4472,1320.65792129163
70.4768,1356.7460477632
70.5064,1331.29162462158
70.536,1239.58445491251
70.5656,1131.73662966705
70.5952,937.793810965364
70.6249,846.960969044417
70.6545,791.52371342079
70.6841,759.990581903813
70.7137,696.461641991922
70.7433,680.249243188673
70.7729,569.360578540194
70.8025,574.635262449529
70.8321,551.484359233104
70.8617,497.881937436919
70.8913,444.61742934051
70.921,446.280524722502
70.9506,464.071308442639
70.9802,416.445154777926
71.0098,423.136226034308
71.0394,403.664984863774
71.069,394.226707029936
71.0986,395.726783310901
71.1282,375
71.1578,378.736629667005
71.1875,399.130551816958
71.2171,400.907164480323
71.2467,375.633030608811
71.2763,359.825706594887
71.3059,374.264379414733
71.3355,371.433905146317
71.3651,406.532974428002
71.3947,342.24150689539
71.4243,358.784729229737
71.454,370.367429340512
71.4836,361.347460477628
71.5132,330.95156407669
71.5428,355.955936764213
71.5724,378.453230148049
71.602,374.947527749747
71.6316,379.064581231081
71.6612,345.351951547779
71.6908,358.369996636394
71.7205,358.614867137568
71.7501,327.352960969047
71.7797,352.249243188699
71.8093,354.291624621594
71.8389,348.156460296096
71.8685,372.398923646152
71.8981,338.922973427515
71.9277,354.278263795428
71.9573,389.402623612514
71.987,395.265388496468
72.0166,381.487550471059
72.0462,354.625294315508
72.0758,366.606458123107
72.1054,359.495459132194
72.135,394.810228802157
72.1646,361.319206189031
72.1942,341.461486713759
72.2238,395.399730820994
72.2535,413.107635385133
72.2831,417.776992936426
72.3127,405.115074024228
72.3423,414.15741675076
72.3719,431.956273124789
72.4015,422
72.4311,464.826379542401
72.4607,470.949545913218
72.4903,505.552640430542
72.52,476.403768506051
72.5496,472.07130844265
72.5792,546.312815338054
72.6088,570.388832828796
72.6384,586.51009421265
72.668,666.131516986215
72.6976,742.969727547945
72.7272,814.87483176313
72.7568,941.790783720131
72.7865,1161.07500840903
72.8161,1169.15847913863
72.8457,1356.62092162796
72.8753,1670.17961654892
72.9049,1884.3526244953
72.9345,1956.59233097882
72.9641,1925.82475613858
72.9937,1825.31022880218
73.0233,1781.22704339051
73.053,1651.5580221998
73.0826,1545.13324360701
73.1122,1537.81567440296
73.1418,1494.63370332997
73.1714,1374.0171543895
73.201,1266.12786002691
73.2306,1105.36528758832
73.2602,941.645139589638
73.2898,843.598923283973
73.3195,764.261352169535
73.3491,686.602421796175
73.3787,686.600942126515
73.4083,610.705011772609
73.4379,643.069626639755
73.4675,574.317631224771
73.4971,538.040363269426
73.5267,578.269088462832
73.5563,552.95760430687
73.586,618.087790110991
73.6156,665.518331651529
73.6452,703.826437941481
73.6748,740.004037685058
73.7044,811.50117726203
73.734,796.133535149682
73.7636,751.429004037683
73.7932,671.977800201815
73.8228,686.043054154059
73.8524,684.11339165545
73.8821,659.405987218293
73.9117,662.828119744364
73.9413,629.868102288025
73.9709,590.822401614534
74.0005,545.880591994623
74.0301,523.429340511439
74.0597,471.555331315181
74.0893,471.208879919271
74.1189,442.53903095558
74.1486,423.736629667003
74.1782,424.070299360915
74.2078,415.078372014803
74.2374,393.022880215341
74.267,411.908173562054
74.2966,395.986545576862
74.3262,387.253701211306
74.3558,374.385805583582
74.3854,383.277497477295
74.4151,370.314939434727
74.4447,394.768920282542
74.4743,405.271779347461
74.5039,399.931359353971
74.5335,425.352842246885
74.5631,409.52875882947
74.5927,439.544414535668
74.6223,434.08207198117
74.6519,447.485031954253
74.6816,462.613185334678
74.7112,491.50538358008
74.7408,498.1473259334
74.7704,487.044735956944
74.8,444.655450874842
74.8296,465.786074672035
74.8592,484
74.8888,451.746971736203
74.9184,447.350487722841
74.9481,428.333333333337
74.9777,434.550471063264
75.0073,421.619239825096
75.0369,390.383451059536
75.0665,395.593539703902
75.0961,398.190716448033
75.1257,387.947864110326
75.1553,376.356662180349
75.1849,372
75.2146,368.841574167508
75.2442,367
75.2738,365.753701211306
75.3034,350.146316851666
75.333,358.82139253279
75.3626,358.403095558548
75.3922,355.848974100236
75.4218,352.982509249917
75.4514,363.939434724094
75.4811,364.452741338717
75.5107,360.961654894046
75.5403,365.35262449529
75.5699,359.409014463508
75.5995,358.056844937772
75.6291,379.987213997312
75.6587,380.29263370333
75.6883,368.86646485032
75.7179,362.938446014127
75.7476,367.985195154781
75.7772,362.738311469897
75.8068,373.46014127144
75.8364,393.841520861374
75.866,405.713084426505
75.8956,418.401950891357
75.9252,411.743943472412
75.9548,398.809283551968
75.9844,409.71274806592
76.0141,424.106325706595
76.0437,442.715775311133
76.0733,460.58997645476
76.1029,519.517496635248
76.1325,568.413723511605
76.1621,586.734611503538
76.1917,665.614064602962
76.2213,743.859401278177
76.2509,826.569122098908
76.2806,932.736629666992
76.3102,988.718707940779
76.3398,998.067944836866
76.3694,971.110662630353
76.399,913.16218034992
76.4286,811.286579212917
76.4582,753.634376051124
76.4878,790.234185733507
76.5174,835.904473595684
76.5471,835.22334342415
76.5767,763.344549125169
76.6063,690.501513622596
76.6359,640.457786747395
76.6655,651.213997308216
76.6951,648.273461150354
76.7247,600.658930373357
76.7543,596.383114698958
76.7839,599.70995962315
76.8135,607.068617558019
76.8432,647.512613521698
76.8728,676.972745625839
76.9024,694.408678102926
76.932,729.77026572485
76.9616,829.408142664875
76.9912,897.645139589639
77.0208,937.199798183624
77.0504,1038.04609690443
77.08,1125.75950218637
77.1097,1233.12108980826
77.1393,1371.30484522209
77.1689,1549.92297342749
77.1985,1677.65388496468
77.2281,1666.47711978467
77.2577,1513.05112680795
77.2873,1428.79952909519
77.3169,1382.6569122099
77.3465,1328.47913862719
77.3762,1292.99798183653
77.4058,1212.28624285234
77.4354,1187.67496635261
77.465,1122.2616885301
77.4946,1029.13420787082
77.5242,906.034993270523
77.5538,814.73797510931
77.5834,731.431214261686
77.613,669.666890982499
77.6427,629.445005045407
77.6723,598.995963673056
77.7019,547.825033647371
77.7315,503.719811638079
77.7611,481.11503531786
77.7907,474.64076690212
77.8203,446.819650067301
77.8499,409.079717457114
77.8795,431.446350487723
77.9092,434.677321668915
77.9388,383.091826437939
77.9684,392.9263370333
77.998,393.433714670259
78.0276,394.939791456438
78.0572,365.864783047429
78.0868,356.79710632571
78.1164,373.110998990911
78.146,343.728557013118
78.1757,353.499663526251
78.2053,367.249915909862
78.2349,338.100908173562
78.2645,353.019851951547
78.2941,373.249243188691
78.3237,348.455432223345
78.3533,339.539522367979
78.3829,327.635935397039
78.4125,339.354187689209
78.4422,365.898082744701
78.4718,337.481830417227
78.5014,365.381432896066
78.531,372.865119408005
78.5606,363.240915208614
78.5902,357.029263370336
78.6198,349.620248906831
78.6494,369.690444145362
78.679,349.149344096871
78.7087,362.984191052807
78.7383,332.659488559891
78.7679,329.43289606458
78.7975,343.18163471241
78.8271,326.868146653206
78.8567,352.662516823691
78.8863,373.293642785061
78.9159,340
78.9455,340.688088829071
78.9752,346.916582576523
79.0048,353.69895728221
79.0344,325.409825033641
79.064,368.007063572148
79.0936,357.287924655236
79.1232,331.961978465681
79.1528,346.220652539523
79.1824,337.218970736629
79.212,319.439098250338
79.2417,366.286579212916
79.2713,357.75647494114
79.3009,340.821332436067
79.3305,378.802219979817
79.3601,384.626639757814
79.3897,356.749075008402
79.4193,334.041722745626
79.4489,368.91254624958
79.4785,343.825428859734
79.5082,369.532974427994
79.5378,375.998990918265
79.5674,361.465523040699
79.597,370.453566621811
79.6266,397.443659603091
79.6562,424.954591321897
79.6858,424.205248990578
79.7154,428.482004709049
79.745,414.608476286579
79.7746,403.989232839841
79.8043,436.455432223338
79.8339,382.580221997979
79.8635,406.79280188362
79.8931,395.797442799459
79.9227,382.479650185
79.9523,427.636730575176
79.9819,368.030282637955
80.0115,385.957604306865
80.0411,374.08072653885
80.0708,370.030945173226
80.1004,346.282637954238
80.13,350.91927346115
80.1596,374.507568113014
80.1892,345.736877523554
80.2188,345
80.2484,336.299697275478
80.278,346.589165545089
80.3076,380.540195089128
80.3373,366.683484695592
80.3669,362.187079407806
80.3965,345.869155734947
80.4261,347.833501513623
80.4557,405.347796838218
80.4853,397.767160161508
80.5149,383.024217961657
80.5445,377.363269424824
80.5741,393.619111709284
80.6038,393.155398587286
80.6334,424.209552640437
80.663,427
80.6926,416.995290951901
80.7222,393.371342078714
80.7518,388.296769851952
80.7814,444.494450050443
80.811,469.739656912212
80.8406,456.010767160165
80.8703,486.830810629
80.8999,521.020181634717
80.9295,596.164480322903
80.9591,682.081090174965
80.9887,734.767911200812
81.0183,689.918264379412
81.0479,664.765814266484
81.0775,639.708039017826
81.1071,611.262697611844
81.1368,610.409152086137
81.1664,638.982845610488
81.196,686.17961654893
81.2256,665.456931359354
81.2552,731.825765220313
81.2848,690.335687857379
81.3144,683.960296096905
81.344,712.139253279512
81.3736,796.530776992924
81.4033,887.556527590839
81.4329,956.030945173219
81.4625,1114.35856037671
81.4921,1291.35015136225
81.5217,1438.0188425303
81.5513,1590.94517322571
81.5809,1653.07534476959
81.6105,1608.24764468371
81.6401,1524.30877901109
81.6698,1408.80928355195
81.6994,1308.87483176313
81.729,1298.830810629
81.7586,1276.61453077699
81.7882,1237.62920592193
81.8178,1173.9798183653
81.8474,1116.90682811975
81.877,1042.30686406459
81.9066,959.910528086111
81.9363,902.394214598042
81.9659,829.099899091841
81.9955,764.424966352613
82.0251,729.908846283222
82.0547,686.504877228375
82.0843,669.371130551817
82.1139,673.771947527748
82.1435,675.282879246552
82.1731,651.47139973082
82.2028,623.486041035989
82.2324,644.308106289946
82.262,608.157469717374
82.2916,590.097880928355
82.3212,579.186343760512
82.3508,533.934724091533
82.3804,546.206525395224
82.41,556.589303733603
82.4396,557.03398384926
82.4693,549.197780020183
82.4989,547.690884628321
82.5285,517.587621930707
82.5581,498.679004037686
82.5877,520.757820383445
82.6173,519.888664648504
82.6469,511.697173620457
82.6765,509.058526740666
82.7061,498.358224016146
82.7357,505.13391655451
82.7654,485.852674066596
82.795,460.866128489739
82.8246,473.246971736208
82.8542,483.375042045072
82.8838,478.655903128152
82.9134,481.547779273217
82.943,480.714766229397
82.9726,470.706357214935
83.0022,459.362260343089
83.0319,468.257738896365
83.0615,444.687184661947
83.0911,437.256306760848
83.1207,457.617092866753
83.1503,459.143962327614
83.1799,459.068617558023
83.2095,460.845895020189
83.2391,483.485704675405
83.2687,508.958291288259
83.2984,512.729475100942
83.328,514.380423814329
83.3576,515.322906155399
83.3872,551.174629878876
83.4168,606.328624285233
83.4464,631.369996636395
83.476,661.560901749677
83.5056,700.673057517665
83.5352,743.273797510929
83.5649,792.493104608142
83.5945,857.845895020182
83.6241,1002.85805583589
83.6537,1180.58930373361
83.6833,1335.38358008075
83.7129,1553.66633030607
83.7425,1803.53077699295
83.7721,2043.69986541052
83.8017,2194.93340060545
83.8314,2211.03027245207
83.861,2205.9865410498
83.8906,2090.60174907496
83.9202,1887.08644466871
83.9498,1773.0928667564
83.9794,1737.33198789102
84.009,1767.75311133534
84.0386,1756.23276152032
84.0682,1636.15780619114
84.0979,1532.38782374705
84.1275,1433.27648839555
84.1571,1305.08479138625
84.1867,1159.24688866466
84.2163,1018.67642112344
84.2459,947.618775235532
84.2755,895.05449041372
84.3051,832.781365623949
84.3347,796.728465679668
84.3644,742.051799529099
84.394,682.264379414738
84.4236,617.635598923289
84.4532,607.907164480334
84.4828,619.995963673057
84.5124,615.681695827723
84.542,654.254624957948
84.5716,671
84.6012,660.383451059534
84.6309,671.462987886952
84.6605,735.348805919936
84.6901,804.308442650514
84.7197,902.749663526231
84.7493,1003.28254288599
84.7789,1105.2307433569
84.8085,1209.37213997308
84.8381,1266.49243188698
84.8677,1300.07467204844
84.8974,1269.8398384926
84.927,1184.45206861755
84.9566,1136.09283551968
84.9862,1091.0740242261
85.0158,1002.76555667676
85.0454,995.53481331988
85.075,972.617894382782
85.1046,971.374495289353
85.1342,917.040026908846
85.1639,879.110662630342
85.1935,813.843876177653
85.2231,707.521695257315
85.2527,644.716448032293
85.2823,608.130551816955
85.3119,569.892700975445
85.3415,561.43995963673
85.3711,534.286675639297
85.4007,479.775647494107
85.4304,464.468550285901
85.46,467.436406460293
85.4896,426.326942482341
85.5192,406.355196770939
85.5488,370.673956931358
85.5784,390.523040699631
85.608,393.579212916251
85.6376,372.660948536831
85.6672,388.493943472409
85.6968,389.489068281199
85.7265,396.256306760847
85.7561,386.691790040375
85.7857,365.676421123445
85.8153,370.529767911201
85.8449,362.537012113057
85.8745,345.987554658594
85.9041,356.774638412372
85.9337,342.849259757743
85.9633,374.422805247223
85.993,381.89001009082
86.0226,364.668909825035
86.0522,370.590985536495
86.0818,371.001345442314
86.1114,385.85166498487
86.141,408.256393001341
86.1706,385.124117053482
86.2002,385.974436596033
86.2298,375.861372812926
86.2595,411.110326269761
86.2891,410.297679112011
86.3187,429.723418573349
86.3483,449.321224352505
86.3779,470.952573158413
86.4075,550.095222072677
86.4371,555.695257315842
86.4667,549.708039017824
86.4963,533.907806191111
86.526,588.429532458795
86.5556,598.662966700301
86.5852,613.967362045767
86.6148,634.024217961649
86.6444,560.541540531446
86.674,603.207198116379
86.7036,578.784656796775
86.7332,549.825428859732
86.7628,571.130844265052
86.7925,554.847913862728
86.8221,482.729566094847
86.8517,514.702320887992
86.8813,506.97106325707
86.9109,458.909182643794
86.9405,460.939118735284
86.9701,485.760430686408
86.9997,416.156071308442
87.0293,415.937436932398
87.059,391.453566621804
87.0886,408.147325933398
87.1182,383.899428187016
87.1478,396.76051126808
87.1774,392.444818304173
87.207,381.55903128153
87.2366,354.717457114027
87.2662,349
87.2958,349.812310797173
87.3255,369.736293306426
87.3551,362.666890982503
87.3847,353.497477295662
87.4143,369.701311806255
87.4439,358.225773889636
87.4735,368.620921627984
87.5031,346.423814328956
87.5327,381.030955585465
87.5623,385.321897073651
87.592,471.647494113705
87.6216,341.220316178959
87.6512,387.731157469724
87.6808,387.010090817356
87.7104,429.378069290286
87.74,418.22603430878
87.7696,418
87.7992,489.011099899082
87.8288,485.189707366298
87.8585,517.901749663526
87.8881,590.286915573485
87.9177,547.928691557363
87.9473,577.512113055178
87.9769,580.901109989909
88.0065,507.197780020181
88.0361,482.273216689099
88.0657,470.684493777326
88.0953,467.199798183652
88.125,499.644683714677
88.1546,495.501513622604
88.1842,501.467877564748
88.2138,484.527413387152
88.2434,461.942462987892
88.273,490.06962663976
88.3026,423.174234779696
88.3322,417.805518169583
88.3618,407.218970736632
88.3915,367.411368987555
88.4211,397.840174966359
88.4507,377.107971745715
88.4803,428.846955936773
88.5099,374.361372812913
88.5395,368.628657921292
88.5691,365.512613521695
88.5987,364.132234185733
88.6283,365.726875210225
88.6579,358.268415741674
88.6876,332.108008075375
88.7172,339.102253615879
88.7468,356.293642785067
88.7764,375.060208543558
88.806,401.553162853301
88.8356,370.851664984862
88.8652,359.005045408676
88.8948,347.230820995962
88.9244,353.240834174234
88.9541,345.123107971749
88.9837,360.19851951548
89.0133,369.70265724857
89.0429,374.241170534813
89.0725,346.783310901753
89.1021,356.839556004037
89.1317,346.644803229061
89.1613,366.008748317631
89.1909,347.537840565082
89.2206,373.311806256312
89.2502,367.893037336026
89.2798,377.253364737549
89.3094,398.056844937777
89.339,419.960645812314
89.3686,429.600942126516
89.3982,387.535822401624
89.4278,404.32626976119
89.4574,388.362718707937
89.4871,403.346451395892
89.5167,396.773965691217
89.5463,379.341520861374
89.5759,353.530440632355
89.6055,393.101244534146
89.6351,368.285666218033
89.6647,371.188698284559
89.6943,386.678102926336
89.7239,367.709623149399
89.7536,341.7648839556
89.7832,348.561385805583
89.8128,356.128153380424
89.8424,353.473755047106
89.872,342.887319206186
89.9016,352.932055163135
89.9312,373.541722745629
89.9608,347.654894046406
89.9904,349.411705348138