4.0001,486.979818365288
4.0297,481.006054490414
4.0593,466.075706594886
4.0889,456.094180961991
4.1185,412.606794483687
4.1482,434.667227456258
4.1778,424.207198116381
4.2074,448.419778002018
4.237,398.417227456258
4.2666,380.537504204507
4.2962,360.719811638076
4.3258,387.82946518668
4.3554,400.467025572005
4.385,364.853346787757
4.4147,398.158089471914
4.4443,377.292059219381
4.4739,361.872855701312
4.5035,344.126135216953
4.5331,364.467698519515
4.5627,374.361251261352
4.5923,356.50689539186
4.6219,346.71467025572
4.6515,358.827447023209
4.6812,345.356205852674
4.7108,333.977119784657
4.7404,319.397578203835
4.77,341.463841237807
4.7996,317.955600403633
4.8292,352.548452220727
4.8588,324.082071981163
4.8884,316.458795829129
4.918,294.850605652759
4.9477,289.359233097881
4.9773,306.517658930373
5.0069,315.974427994616
5.0365,311.795156407669
5.0661,289.422468886647
5.0957,300.6032974428
5.1253,286.760847628658
5.1549,286.550958627649
5.1845,281.922611036339
5.2142,274.237806929028
5.2438,278.886310124453
5.2734,277.489569313594
5.303,272.005045408678
5.3326,275.968718466196
5.3622,253.935082408342
5.3918,265.393001345895
5.4214,255.139253279515
5.451,269.030272452069
5.4807,267.328398384926
5.5103,275.671039354188
5.5399,257.961318533468
5.5695,252.202557200538
5.5991,246.448032290616
5.6287,267.085435586949
5.6583,268.292059219381
5.6879,235.78573831147
5.7175,230.103935418769
5.7471,246.437415881561
5.7768,240.206861755802
5.8064,258.463841237807
5.836,245.945173225698
5.8656,260.468034993271
5.8952,242.878910191725
5.9248,244.742347796838
5.9544,249.490578734859
5.984,236.661957618567
6.0136,233.473259334006
6.0433,222.96197846568
6.0729,239.484359233098
6.1025,231.728557013118
6.1321,225.276917900404
6.1617,232.906828119744
6.1913,246.716448032291
6.2209,255.261776581427
6.2505,238.643457786747
6.2801,216.967036663303
6.3098,216.606998654105
6.3394,223.876219307097
6.369,239.152371342079
6.3986,253.942145980491
6.4282,235.437415881561
6.4578,223.641103262698
6.4874,215.574167507568
6.517,209.316285329744
6.5466,217.333333333334
6.5763,227.990918264379
6.6059,230.338492597577
6.6355,227.37100571813
6.6651,220.776992936428
6.6947,226.433378196501
6.7243,228.422132526068
6.7539,212.277833837874
6.7835,217.35464333782
6.8131,224.368314833502
6.8428,224.630676084763
6.8724,217.484359233098
6.902,194.335800807537
6.9316,208.951564076691
6.9612,222.545913218971
6.9908,229.530955585464
7.0204,225.923309788093
7.05,230.212579885637
7.0796,217.313257065949
7.1093,226.636394214599
7.1389,227.808274470232
7.1685,226.807200538358
7.1981,219.010090817356
7.2277,211.314160780357
7.2573,214.723082099596
7.2869,213.719475277497
7.3165,210.868483013791
7.3461,190.906460296097
7.3758,201.792801883619
7.4054,225.894382778338
7.435,222.376387487387
7.4646,220.834454912517
7.4942,236.501849983182
7.5238,233.520349815002
7.5534,222
7.583,234.207870837538
7.6126,233.945509586276
7.6423,236.613728129206
7.6719,242.786411032627
7.7015,232.313151698621
7.7311,215.205921938089
7.7607,225.360242179616
7.7903,250.537840565086
7.8199,242
7.8495,232.966363942146
7.8791,240.931382441978
7.9088,239.115035317861
7.9384,240.293068640646
7.968,234.985872855701
7.9976,235.80659266734
8.0272,254.367092866756
8.0568,246.677093844601
8.0864,233.605449041372
8.116,247.200874831764
8.1456,262.717793474605
8.1753,263.643457786747
8.2049,261.683041722745
8.2345,253.55297679112
8.2641,254.770602085436
8.2937,254.807873485868
8.3233,251.565758493105
8.3529,254.438950554995
8.3825,274.748654104979
8.4121,262.283215607129
8.4418,245.852001345444
8.4714,286.167843928692
8.501,286.235531628533
8.5306,276.585267406659
8.5602,274.518668012108
8.5898,295.600942126514
8.6194,290.656239488732
8.649,280.094853683148
8.6786,272.454912516824
8.7082,263.886310124453
8.7379,275.722502522704
8.7675,317.029609690444
8.7971,319.546249579549
8.8267,305.895055499495
8.8563,316.378196500673
8.8859,326.123107971746
8.9155,301.44466868483
8.9451,305.534813319879
8.9747,324.653095558546
9.0044,314.308779011099
9.034,300.100908173562
9.0636,313.062247644684
9.0932,325
9.1228,329.986881937437
9.1524,330.376514131898
9.182,329.884964682139
9.2116,338.84561049445
9.2412,352.797779273217
9.2709,355.687857383115
9.3005,330.441977800202
9.3301,356.192126514131
9.3597,376.928018836192
9.3893,352.064917591657
9.4189,337.223418573349
9.4485,374.715438950555
9.4781,366.188025563404
9.5077,362.045072317525
9.5374,359.79138627187
9.567,348.763202152707
9.5966,388.058526740666
9.6262,373.158815612382
9.6558,358.143962327615
9.6854,378.402623612512
9.715,409.258411843876
9.7446,421.844601412715
9.7742,409.529767911202
9.8039,434.095558546434
9.8335,446.763202152708
9.8631,449.486377396569
9.8927,449.821668909824
9.9223,417.152371342079
9.9519,430.607130844265
9.9815,424.902455432223
10.0111,461.421938088829
10.0407,463.413723511604
10.0704,464.588294651867
10.1,460.782974427994
10.1296,452
10.1592,457.59905819038
10.1888,470.051816958279
10.2184,429.647830474268
10.248,459.540867810293
10.2776,462.527927321669
10.3072,468.093844601413
10.3369,473.089471913892
10.3665,435.992597577388
10.3961,490.67507568113
10.4257,492.477968382105
10.4553,507.924629878869
10.4849,494.742011436259
10.5145,515.564076690212
10.5441,513.281870164817
10.5737,517.458950201885
10.6034,529.330978809284
10.633,508.367305751766
10.6626,526.034993270524
10.6922,537.291624621595
10.7218,518
10.7514,520.974427994616
10.781,540.028254288597
10.8106,513.933400605449
10.8402,554.65141318977
10.8699,477.34813319879
10.8995,527.606458123108
10.9291,552.184387617766
10.9587,553.64749411369
10.9883,548.157416750757
11.0179,529.984527413387
11.0475,552.174629878869
11.0771,544.696939118736
11.1067,578.53481331988
11.1364,557.409488559892
11.166,549.677093844601
11.1956,558.570467541204
11.2252,537.430013458951
11.2548,579.634376051127
11.2844,553.532795156408
11.314,564.919919246299
11.3436,563.611839892364
11.3732,578.924991590986
11.4029,545.356998654105
11.4325,526.594349142281
11.4621,584.667003027245
11.4917,569.875168236877
11.5213,563.193070972082
11.5509,577.065926673394
11.5805,583.939455095863
11.6101,571.981830417228
11.6397,545.090847913863
11.6693,589.65186680121
11.699,573.148671375715
11.7286,561.153432032302
11.7582,549.205852674067
11.7878,564.655566767575
11.8174,582.539703903095
11.847,587.85031954255
11.8766,576.411705348133
11.9062,546.189098250336
11.9358,596.693239152373
11.9655,598.04372687521
11.9951,578.003364737551
12.0247,595.957282206526
12.0543,595.113017154389
12.0839,575.278506559032
12.1135,553.42866756393
12.1431,633.902455432221
12.1727,586.272452068617
12.2023,576.466352624495
12.232,640.490413723511
12.2616,662.50454086781
12.2912,666.738559892328
12.3208,670.634039690548
12.3504,640.259334006055
12.38,623.498990578735
12.4096,643.497477295661
12.4392,613.911200807266
12.4688,545.228465679678
12.4985,593.723847965017
12.5281,568.368314833501
12.5577,554.343539703903
12.5873,570.470568449377
12.6169,568.654221325261
12.6465,554.16347124117
12.6761,555.442799461642
12.7057,548.29263370333
12.7353,549.556004036327
12.765,570.430686406461
12.7946,558.754793138245
12.8242,551.787083753784
12.8538,553.515477792732
12.8834,525.63807601749
12.913,575.59670366633
12.9426,577.091520861373
12.9722,574.178607467205
13.0018,570.731920618904
13.0315,558.57200538358
13.0611,580.359233097881
13.0907,567.425159771275
13.1203,558.180625630676
13.1499,557
13.1795,555.410359905819
13.2091,538.400605449042
13.2387,534.786339165545
13.2683,523.26942482341
13.298,527.029263370333
13.3276,513.461641991924
13.3572,551.494113689876
13.3868,584.742684157417
13.4164,544.387954239569
13.446,503.40565085772
13.4756,538.061553985873
13.5052,550.49730820996
13.5348,540.288261015809
13.5645,538.492095526404
13.5941,547.161170928668
13.6237,533.771947527749
13.6533,559.530440632357
13.6829,562.253279515641
13.7125,518.413189771198
13.7421,521.012108980827
13.7717,546.618903464515
13.8013,570.375504710632
13.831,556.379078372015
13.8606,549.413387151026
13.8902,561.240915208614
13.9198,516.421796165492
13.9494,529.695593676422
13.979,545
14.0086,518.26538849647
14.0382,557.765893037338
14.0678,567.106325706594
14.0975,566.760847628657
14.1271,578.060544904138
14.1567,569.983849259759
14.1863,625.687184661955
14.2159,672.155398587286
14.2455,697.01849983182
14.2751,668.276581426647
14.3047,616.984863773966
14.3343,576.89606458123
14.364,551.821332436069
14.3936,534.175580221998
14.4232,534.955936764211
14.4528,554.076716016151
14.4824,565.495795492768
14.512,555.228052472251
14.5416,525.229811574696
14.5712,503.054826774302
14.6008,536.228052472252
14.6304,529.663526244953
14.6601,503.584258324924
14.6897,510.752774974773
14.7193,525.709048099563
14.7489,546.898384925975
14.7785,531.108644466867
14.8081,521.863773965691
14.8377,526.695827725438
14.8673,525.571812983518
14.8969,531.674402959973
14.9266,522.401076716017
14.9562,508.063235788765
14.9858,513.928355196771
15.0154,539.830417227455
15.045,545.106962663976
15.0746,524.459468550286
15.1042,531.313593539704
15.1338,542.779011099899
15.1634,553.311469895729
15.1931,563.405114401077
15.2227,540.903464513959
15.2523,516.24655230407
15.2819,535.377396569124
15.3115,541.022543741589
15.3411,524.489741002355
15.3707,534.623612512613
15.4003,567.575706594885
15.4299,554.181634712415
15.4596,542.823410696267
15.4892,555.693472409152
15.5188,543.488059199462
15.5484,553.673730238816
15.578,528.518842530283
15.6076,516.140262361252
15.6372,552.534476959301
15.6668,542.332436069988
15.6964,535.337369660276
15.7261,542.770265724856
15.7557,522.400605449042
15.7853,517.793405114401
15.8149,513.436259670366
15.8445,527.325933400608
15.8741,554.317631224765
15.9037,553.769929364278
15.9333,547.854019508913
15.9629,509.316958277255
15.9926,519.737302388162
16.0222,544.135216952573
16.0518,534.089502018843
16.0814,540.309788092835
16.111,541.315842583249
16.1406,536.810228802153
16.1702,546.419778002019
16.1998,538.774974772958
16.2294,522.516150740241
16.2591,555.179616548941
16.2887,575.645812310797
16.3183,593.335015136227
16.3479,628.548115746972
16.3775,656.753784056509
16.4071,687.409687184665
16.4367,853.529609690436
16.4663,1266.3538513286
16.4959,1668.85771947528
16.5256,1390.36473755046
16.5552,801.579212916241
16.5848,647.088126471579
16.6144,625.809555854644
16.644,627.533467877565
16.6736,620.370332996973
16.7032,650.214670255719
16.7328,669.568785738313
16.7624,636.977463841236
16.7921,620.569794820047
16.8217,636.776581426649
16.8513,647.487386478306
16.8809,657.938446014128
16.9105,724.749663526242
16.9401,695.301379078371
16.9697,708.921291624621
16.9993,703.886944818306
17.0289,773.82946518668
17.0586,784.758156744028
17.0882,829.337819650069
17.1178,803.94685502859
17.1474,848.126135216952
17.177,897.266487213998
17.2066,925.397914564411
17.2362,893.132526067945
17.2658,894.742934051144
17.2954,969.670030272447
17.3251,1106.24117053481
17.3547,1123.46686848301
17.3843,1230.81561238223
17.4139,1412.09687184663
17.4435,1722.45812310795
17.4731,2301.20323014806
17.5027,2932.29498822738
17.5323,2670.37100571816
17.5619,1837.35262449528
17.5915,1744.21997981837
17.6212,1813.36226034309
17.6508,1887.02590847914
17.6804,1731.95391860074
17.71,1784.52304069963
17.7396,1848.18135935397
17.7692,1841.36024217961
17.7988,1937.40396905483
17.8284,1978.65119408006
17.858,2092.28802153433
17.8877,2291.16212579886
17.9173,2505.0908173562
17.9469,2667.80619111709
17.9765,2898.2838883283
18.0061,3331.79717457116
18.0357,3916.06594885597
18.0653,4867.85973763879
18.0949,6629.01009081741
18.1245,10426.7631224765
18.1542,18906.0326269758
18.1838,38295.0901446368
18.2134,84420.2732166898
18.243,193234.105953579
18.2726,360840.82105617
18.3022,303289.894347241
18.3318,191693.169189371
18.3614,61304.3229061556
18.391,20960.8853010426
18.4207,11707.5518169582
18.4503,7822.64076690203
18.4799,5919.98755465857
18.5095,4793.68674293408
18.5391,4078.62764883956
18.5687,3674.54423141607
18.5983,3265.07772543741
18.6279,2905.97309115372
18.6575,2658.44399596368
18.6872,2555.33479138627
18.7168,2454.26135216952
18.7464,2241.19845274134
18.776,2092.34925975774
18.8056,2029.61385805583
18.8352,1951.47729566095
18.8648,1895.4749411369
18.8944,1719.66756393001
18.924,1734.81163807602
18.9537,1724.83047426842
18.9833,1587.44952893674
19.0129,1541.22603430878
19.0425,1548.92835519677
19.0721,1544.69246298789
19.1017,1478.41204170871
19.1313,1440.83350151362
19.1609,1425.91251682369
19.1905,1412.78742011436
19.2202,1333.99663639421
19.2498,1332.00538176926
19.2794,1316.10767160162
19.309,1296.22199798184
19.3386,1219.2068617558
19.3682,1336.63862718708
19.3978,1393.66263033972
19.4274,1343.49747729566
19.457,1271.38176925664
19.4867,1153.96399730821
19.5163,1118.24318869828
19.5459,1178.30911537168
19.5755,1145.70558546433
19.6051,1133.55499495459
19.6347,1134.8903464514
19.6643,1190.52590847914
19.6939,1120.93239152372
19.7235,1072.17759838547
19.7532,1055.95625841184
19.7828,1037.38042381433
19.8124,1065.53514968046
19.842,1035.83815612382
19.8716,1001.90480995627
19.9012,1070.90514631685
19.9308,1110.60948536832
19.9604,1192.45222072678
19.99,1256.6394214598
20.0197,1360.70770265725
20.0493,1570.98923283984
20.0789,1898.69323915236
20.1085,2583.80928355199
20.1381,3751.7166890983
20.1677,6816.20047090467
20.1973,12761.8183652874
20.2269,25333.4831763132
20.2565,46485.1342078713
20.2862,48750.0672721157
20.3158,36034.0349932702
20.3454,20486.3195425494
20.375,9796.18869828486
20.4046,6654.44010767153
20.4342,7110.56676757489
20.4638,10690.3683148334
20.4934,17781.5570131177
20.523,21258.0329744279
20.5526,16576.0161453081
20.5823,11000.7870837536
20.6119,5424.56998654086
20.6415,2993.81567440294
20.6711,2076.36730575176
20.7007,1579.30450874831
20.7303,1325.61722166161
20.7599,1215.50084090145
20.7895,1177.39771197846
20.8191,1215.34510595358
20.8488,1176.62663975782
20.8784,1033.0262449529
20.908,949.500840901444
20.9376,897.284897410027
20.9672,832.874873864784
20.9968,829.253028263795
21.0264,822.33871510259
21.056,796.285570131181
21.0856,783.728802153432
21.1153,787.264715775311
21.1449,770.306760847628
21.1745,745.409825033649
21.2041,728.649512277161
21.2337,716.180625630676
21.2633,706.422611036339
21.2929,683.656912209889
21.3225,695.498486377398
21.3521,667.098250336477
21.3818,683.119071644803
21.4114,672.904809956271
21.441,662.582772543742
21.4706,655.660948536832
21.5002,663.499495459132
21.5298,653.392532795157
21.5594,622.107671601613
21.589,608.938446014127
21.6186,590.929700639084
21.6483,600.732839838494
21.6779,602.222334342415
21.7075,588.899091826437
21.7371,578.646029609691
21.7667,585.309788092835
21.7963,562.914900773629
21.8259,562.785666218034
21.8555,573.913218970736
21.8851,578.591321897073
21.9148,567.059219380889
21.9444,561.285570131181
21.974,583.067608476286
22.0036,602.608476286579
22.0332,610.779273216689
22.0628,606.118062563068
22.0924,584.604776320215
22.122,598.683714670257
22.1516,595.614530776992
22.1813,580.940800538177
22.2109,586.29205921938
22.2405,569.276488395559
22.2701,547.811301715439
22.2997,560.846567967699
22.3293,564.140262361252
22.3589,566.794147325933
22.3885,568.92530282638
22.4181,583.33602421796
22.4478,582.155398587286
22.4774,561.119111709287
22.507,555.273797510932
22.5366,569.973763874872
22.5662,599.589640094182
22.5958,562.225773889641
22.6254,521.102589976455
22.655,550.439959636731
22.6846,569.658142664872
22.7143,599.596367305752
22.7439,657.025227043393
22.7735,658.001009421267
22.8031,696.787756474945
22.8327,788.304742684156
22.8623,886.504037685066
22.8919,1099.89404641777
22.9215,1452.33602421796
22.9511,2038.92799461647
22.9808,3200.67406659951
23.0104,5009.74974772945
23.04,6607.41136898756
23.0696,6704.75370121132
23.0992,5537.3831146989
23.1288,3972.60544904148
23.1584,2539.35868102292
23.188,1651.63773965689
23.2176,1149.68348469562
23.2473,912.617765814265
23.2769,796.843255970406
23.3065,713.74672048436
23.3361,669.067294751011
23.3657,648.633366969391
23.3953,631.091490077363
23.4249,602.045760430686
23.4545,557.575176589307
23.4841,534.564076690212
23.5137,573.336473755045
23.5434,577.962663975783
23.573,523.008072653884
23.6026,522.866801210898
23.6322,541.097913862719
23.6618,539.015136226034
23.6914,529.533804238143
23.721,534.949528936744
23.7506,546.792129162462
23.7802,541.415741675076
23.8099,524.07873485868
23.8395,513.077699293643
23.8691,538.386814665323
23.8987,543.308882907135
23.9283,510.815338042381
23.9579,526.939118735284
23.9875,573.179676985195
24.0171,585.529431550622
24.0467,617.147325933394
24.0764,677.724520686176
24.106,715.516823687752
24.1356,768.261352169526
24.1652,719.13858055836
24.1948,667.547779273216
24.2244,632.691220988904
24.254,556.451395896404
24.2836,523.308209959622
24.3132,541.671712075345
24.3429,551.472922973428
24.3725,555.880215343207
24.4021,514.898082744702
24.4317,509.346451395896
24.4613,525.032974427995
24.4909,522.980827447025
24.5205,498.603430877901
24.5501,497.323014804845
24.5797,499.505886310126
24.6094,515.030945173226
24.639,500.984527413387
24.6686,496
24.6982,497.397578203835
24.7278,504.026572485705
24.7574,516.875504710633
24.787,531.867137571477
24.8166,524.66902119072
24.8462,512.968707940781
24.8759,568.964682139256
24.9055,546.070635721493
24.9351,562.010767160161
24.9647,543.528758829464
24.9943,506.681130171544
25.0239,504.92395693136
25.0535,486.635048772284
25.0831,504.728557013119
25.1127,523.366296670032
25.1424,550.892328398386
25.172,526.897073662968
25.2016,515.252270433904
25.2312,555.092866756393
25.2608,568.950218634378
25.2904,585.17255297679
25.32,565.860026917901
25.3496,593.190043726877
25.3792,574.504204507232
25.4089,579.129205921938
25.4385,564.412714429869
25.4681,546.788092835518
25.4977,602.045760430687
25.5273,605.80861083081
25.5569,595.19105280861
25.5865,571.161507402423
25.6161,572.314833501514
25.6457,571.8573831147
25.6754,571.250588631011
25.705,638.874495289367
25.7346,656.946182307431
25.7642,598.810292633704
25.7938,607.571332436069
25.8234,598.934746047764
25.853,642.091153716786
25.8826,624.931359353969
25.9122,642.458123107971
25.9419,618.692230070636
25.9715,640.014468371467
26.0011,644.632021527078
26.0307,624.299024554319
26.0603,686.300471063257
26.0899,684.122098890008
26.1195,725.104271779347
26.1491,746.784056508578
26.1787,760.297442799462
26.2084,819.902791792802
26.238,836.293642785072
26.2676,922.736204576037
26.2972,1083.4029599731
26.3268,1272.39656912212
26.3564,1623.04172274564
26.386,2110.60948536837
26.4156,3073.56441305076
26.4452,4702.92732166886
26.4748,6542.34611503531
26.5045,6661.05112680789
26.5341,5685.09690444146
26.5637,4752.88698284562
26.5933,3831.7268752102
26.6229,3253.12786002691
26.6525,2533.09586276489
26.6821,2492.60040363269
26.7117,2530.33602421796
26.7413,2796.3024899058
26.771,3788.0124453413
26.8006,5467.70299360898
26.8302,8635.78910191709
26.8598,11895.4808209957
26.8894,11301.8015472587
26.919,9119.43625967026
26.9486,7186.54273216698
26.9782,4431.75983854683
27.0078,2813.48940464171
27.0375,2178.59791386277
27.0671,1812.4140598722
27.0967,1538.78943827784
27.1263,1297.64973082099
27.1559,1186.70635721493
27.1855,1116.36528758829
27.2151,1005.05852674067
27.2447,1031.05518169583
27.2743,911.002018163471
27.304,895.500504540868
27.3336,909.00067294751
27.3632,832.890682811967
27.3928,858.438277833839
27.4224,872.967698519516
27.452,871.25126135217
27.4816,862.793138244198
27.5112,910.113728129204
27.5408,886.089135553311
27.5705,855.023881601076
27.6001,896.919246298786
27.6297,967.265388496475
27.6593,957.206525395224
27.6889,1049.75908479138
27.7185,1124.56979482004
27.7481,1261.02623612513
27.7777,1336.5862764884
27.8073,1585.55753701212
27.837,2008.8933736966
27.8666,2516.81264715773
27.8962,3589.61440107676
27.9258,5325.77901109979
27.9554,7785.97410023564
27.985,9308.48889636611
28.0146,8322.8546922301
28.0442,7273.18768920277
28.0738,5800.32335127865
28.1035,4223.49445005053
28.1331,3208.72351160443
28.1627,2549.52119784651
28.1923,1932.95963673059
28.2219,1617.98082744703
28.2515,1378.99024554324
28.2811,1271.06460296097
28.3107,1216.67473932055
28.3403,1184.65085771947
28.37,1237.2133243607
28.3996,1169.51362260343
28.4292,1142.47864110326
28.4588,1133.1534320323
28.4884,1159.09283551968
28.518,1274.86175580223
28.5476,1452.65545087484
28.5772,1644.14194416413
28.6068,2049.23141607805
28.6365,2697.00201884254
28.6661,3596.37941473257
28.6957,4324.48234106964
28.7253,4315.07671601614
28.7549,3750.39959636727
28.7845,3161.29767911205
28.8141,2506.25227043388
28.8437,1886.6954912517
28.8733,1556.59636730576
28.903,1421.00605449041
28.9326,1350.61507402423
28.9622,1369.22132526068
28.9918,1418.72149344097
29.0214,1528.1796769852
29.051,1639.0141271443
29.0806,1850.72687521021
29.1102,2222.34925975775
29.1398,2703.5519677094
29.1695,3314.79515640772
29.1991,4243.62180349936
29.2287,5960.47292297354
29.2583,8602.29599730909
29.2879,13313.5973763872
29.3175,22432.7422611036
29.3471,38789.3333333333
29.3767,60583.6071308431
29.4063,70413.1117092865
29.4359,62158.7184661955
29.4656,50959.1523713417
29.4952,37013.2974427994
29.5248,22074.8133198785
29.5544,12427.5270770262
29.584,7532.29205921945
29.6136,5006.21997981831
29.6432,3627.73864783041
29.6728,2799.2584118439
29.7024,2284.29835183315
29.7321,1980.41271442986
29.7617,1768.25437415882
29.7913,1602.62462159436
29.8209,1455.83821056173
29.8505,1309.89270097545
29.8801,1215.01278600269
29.9097,1148.53683148335
29.9393,1122.93979145644
29.9689,1083.55148048452
29.9986,985.799192734607
30.0282,931.214598049108
30.0578,929.297442799462
30.0874,919.597376387487
30.117,891.76421123444
30.1466,891.600942126513
30.1762,871.788429196097
30.2058,856.953582240162
30.2354,862.256056527591
30.2651,862.191725529768
30.2947,849.323915237135
30.3243,839.1567440296
30.3539,799.805518169579
30.3835,773.02320887992
30.4131,736.255634039696
30.4427,729.421265141317
30.4723,725.812310797173
30.5019,744.848637739658
30.5316,781.71870794078
30.5612,740.485368314834
30.5908,696.37806929028
30.6204,700.999999999999
30.65,744.293979145646
30.6796,754.257315842584
30.7092,722.43472409152
30.7388,704.033972418433
30.7684,730.761183989236
30.7981,743.799461641991
30.8277,702.26740665994
30.8573,708.907164480318
30.8869,753.832156071309
30.9165,772.291386271869
30.9461,799.344769593002
30.9757,787.903128153375
31.0053,751.239232839838
31.0349,739.802892700975
31.0646,703.851328624288
31.0942,683.630551816958
31.1238,676.143962327615
31.1534,678.764883955602
31.183,698.446164199192
31.2126,717.337369660273
31.2422,751.753784056509
31.2718,802.413862718702
31.3014,922.988900100903
31.3311,1034.5751765893
31.3607,1264.51631348805
31.3903,1673.48250336474
31.4199,1986.96333669696
31.4495,2145.67507568113
31.4791,2022.54777927324
31.5087,1771.70097544567
31.5383,1493.83921964343
31.5679,1182.55585464332
31.5976,1025.43962327615
31.6272,999.782038345112
31.6568,1011.96231493944
31.6864,930.446686848306
31.716,859.401614530784
31.7456,785.951547779272
31.7752,738.776992936428
31.8048,737.830474268416
31.8344,729.384925975774
31.8641,783.278842919597
31.8937,895.666666666666
31.9233,884.340060544895
31.9529,786.844549125169
31.9825,777.523040699632
32.0121,709.2351160444
32.0417,645.652086137282
32.0713,614
32.1009,608.53884964682
32.1306,573.91823687753
32.1602,525.088462832156
32.1898,551.166498486375
32.2194,585.486877523553
32.249,553.852674066598
32.2786,575.437605112681
32.3082,571.507738896366
32.3378,555.179616548942
32.3674,538.39455095863
32.397,564.792129162462
32.4267,562.790040376852
32.4563,548.41002354524
32.4859,540.236125126135
32.5155,534.99596231494
32.5451,517.628657921295
32.5747,505.301379078373
32.6043,539.873485868104
32.6339,515.132526067944
32.6635,517.017154389509
32.6932,548.106325706595
32.7228,570.288597376391
32.7524,590.873192061887
32.782,576.427994616414
32.8116,616.748402287254
32.8412,582.170534813321
32.8708,624.594885598923
32.9004,628.159771274808
32.93,655.210561722164
32.9597,694.901109989903
32.9893,776.028936742924
33.0189,912.671039354196
33.0485,1114.6972754793
33.0781,1315.01076716016
33.1077,1506.57854019508
33.1373,1547.37638748739
33.1669,1393.17799461643
33.1965,1210.74907500841
33.2262,1063.6283215607
33.2558,800.626177658142
33.2854,672.07332660612
33.315,617.265388496466
33.3446,648.580417227453
33.3742,583.92835519677
33.4038,610.494113689876
33.4334,580.359017496635
33.463,577.117053481333
33.4927,581.183652875886
33.5223,555.899764547595
33.5519,569.656796769852
33.5815,569.206525395225
33.6111,593.992936427848
33.6407,654.422611036338
33.6703,671.487050117725
33.6999,724.926000672729
33.7295,855.56796769853
33.7592,1023.4184325597
33.7888,1214.67003027245
33.8184,1210.4064602961
33.848,1076.07534476959
33.8776,1070.75445677767
33.9072,980.006056527578
33.9368,844.990918264389
33.9664,710.581903800874
33.996,713.595694584583
34.0257,602.215006729477
34.0553,623.512277161117
34.0849,613.15640766902
34.1145,593.278263795422
34.1441,553.51160443996
34.1737,593.936764211235
34.2033,592.054508748318
34.2329,593.814328960646
34.2625,586.753447695933
34.2922,625.589838492596
34.3218,602.613858055836
34.3514,575.235452404977
34.381,600.095895020189
34.4106,618.963673057518
34.4402,583.121089808274
34.4698,650.473932055162
34.4994,618.388627187077
34.529,580.61352169526
34.5587,589.828456104944
34.5883,578.258324924319
34.6179,622.823687752352
34.6475,595.868146653213
34.6771,628.799192734613
34.7067,603.074024226107
34.7363,611.572822065253
34.7659,583.412714429865
34.7955,648.419919246294
34.8252,650.104271779347
34.8548,613.203834510599
34.8844,631.667563930013
34.914,658.247225025229
34.9436,681.406323578878
34.9732,692.266487213997
35.0028,691.155398587285
35.0324,716.701984527413
35.062,681.544231416076
35.0917,703.559892328399
35.1213,719.627648839556
35.1509,650.477295660951
35.1805,689.803499327053
35.2101,724.559031281532
35.2397,704.824756138579
35.2693,704.661843876177
35.2989,732.37134207871
35.3285,774.65724857047
35.3581,816.728802153435
35.3878,803.655903128155
35.4174,809.69155734948
35.447,789.373149394348
35.4766,864.327951564078
35.5062,859.872519340732
35.5358,931.14905787349
35.5654,1033.03632694249
35.595,1214.34409687186
35.6246,1200.52135889674
35.6543,1144.20592193809
35.6839,1173.37201479986
35.7135,1234.93710057181
35.7431,1286.4596231494
35.7727,1366.46115035317
35.8023,1637.7272115708
35.8319,2030.73620457603
35.8615,2607.72149344095
35.8911,3647.65691220999
35.9208,5312.67429340495
35.9504,7410.43693239174
35.98,8192.36226034306
36.0096,7322.65545087472
36.0392,6394.25933400603
36.0688,5560.3440968719
36.0984,4336.15035317869
36.128,3100.45356662172
36.1576,2449.06424487053
36.1873,2183.88698284562
36.2169,2182.3196500673
36.2465,2398.11705348132
36.2761,2935.6770938446
36.3057,4079.2738896366
36.3353,5860.7726202488
36.3649,7469.25428859737
36.3945,7313.1584791386
36.4241,6535.04843592332
36.4538,6810.62193070972
36.4834,6989.45827725437
36.513,7668.46619576194
36.5426,9933.98990918263
36.5722,13261.7826379538
36.6018,13312.5465859402
36.6314,10818.1691893712
36.661,9459.18567103939
36.6906,8235.67496635273
36.7203,5761.10393541857
36.7499,3748.53582240169
36.7795,2624.06729475096
36.8091,2108.5580221998
36.8387,1909.72855701311
36.8683,1741.0807537012
36.8979,1711.9451732257
36.9275,1837.94584594685
36.9571,2196.53903095555
36.9868,3246.12243525058
37.0164,5678.4500504543
37.046,9111.58277254343
37.0756,8319.19677093832
37.1052,5779.78069290297
37.1348,5578.09081735622
37.1644,5108.52826379551
37.194,3217.99024554336
37.2236,1991.87857383119
37.2533,1606.72005383582
37.2829,1511.63235788766
37.3125,1470.5862764884
37.3421,1478.38593539704
37.3717,1621.45576858393
37.4013,1757.03868146653
37.4309,1995.87920592193
37.4605,2316.29465186681
37.4901,2936.218634376
37.5198,3841.69549125157
37.5494,5288.78540195089
37.579,7860.87352842251
37.6086,11789.2271197846
37.6382,16051.0898082741
37.6678,16618.3551967707
37.6974,13937.6747393207
37.727,12127.0390309555
37.7566,10674.2916246216
37.7863,7965.24520686176
37.8159,5360.69851951529
37.8455,3941.39387823743
37.8751,3105.89808274469
37.9047,2454.62045760428
37.9343,2050.02421796167
37.9639,1809.23545240499
37.9935,1573.72745625843
38.0231,1372.72922973427
38.0528,1295.97006390851
38.0824,1213.91857335127
38.112,1166.01210898083
38.1416,1168.20248906828
38.1712,1177.27077026572
38.2008,1177.42429340512
38.2304,1294.29364278507
38.26,1560.24857046754
38.2896,1731.53398384925
38.3192,1644.64749411369
38.3489,1470.17457114026
38.3785,1412.38257065949
38.4081,1341.04641775985
38.4377,1181.04641775984
38.4673,1036.79878869448
38.4969,995.050117726202
38.5265,933.271442986869
38.5561,872.099259757738
38.5857,871.745711402624
38.6154,875.512949882273
38.645,883.334454912514
38.6746,881.507568113017
38.7042,857.128153380424
38.7338,867.651866801208
38.7634,888.982503364736
38.793,904.193407332662
38.8226,919.862764883954
38.8522,914.320323014802
38.8819,933.062563067613
38.9115,977.994281870164
38.9411,979.584118438761
38.9707,1025.45745038681
39.0003,1081.82845610495
39.0299,1132.40107671602
39.0595,1241.24386141945
39.0891,1445.13050790448
39.1187,1671.1265141319
39.1484,1967.78573831147
39.178,2426.24722502518
39.2076,3237.96602758158
39.2372,4420.53061911162
39.2668,5635.15405314493
39.2964,6695.62361251267
39.326,7553.13963660844
39.3556,9142.96838210577
39.3852,11414.8123107971
39.4149,12372.6036339166
39.4445,11150.4490413724
39.4741,9388.02724520683
39.5037,8259.0548452221
39.5333,6959.23007063553
39.5629,5168.83585603752
39.5925,3638.09253028259
39.6221,2706.26942482342
39.6517,2137.98150016819
39.6814,1836.16756393001
39.711,1699.15741675078
39.7406,1458.89505549948
39.7702,1386.4530776993
39.7998,1454.92059219381
39.8294,1438.10595358224
39.859,1441.36730575177
39.8886,1552.06325706596
39.9182,1764.83451059536
39.9479,2024.18062563065
39.9775,2464.73620457608
40.0071,3274.50756811305
40.0367,4592.73326606118
40.0663,5917.16016150741
40.0959,6607.46720484359
40.1255,5973.79112008068
40.1551,5275.26514131898
40.1847,4987.51160444
40.2144,4398.55835856037
40.244,3435.8647830474
40.2736,2690.16285329742
40.3032,2133.1553985873
40.3328,1887.45543222334
40.3624,1612.7304845222
40.392,1335.39253279516
40.4216,1250.22603430877
40.4512,1144.27355316286
40.4809,1076.8950554995
40.5105,1049.41574167508
40.5401,1034.41554508748
40.5697,1028.37638748739
40.5993,1002.00571812984
40.6289,969.108681022885
40.6585,1034.15304406324
40.6881,1013.01614530777
40.7177,977.707940780619
40.7474,988.303733602421
40.777,989.937100571815
40.8066,1081.17827110663
40.8362,1153.22745625841
40.8658,1099.64783047427
40.8954,1037.61688530104
40.925,1055.13189771198
40.9546,1110.51328624285
40.9842,1148.18163471241
41.0139,1135.46298788694
41.0435,1195.54086781029
41.0731,1375.10124453414
41.1027,1481.70928667564
41.1323,1569.07366296668
41.1619,1816.31281533803
41.1915,1907.72274562584
41.2211,1906.56374032965
41.2507,1763.57349478642
41.2803,1674.58526740666
41.31,1637.77557200539
41.3396,1591.79112008073
41.3692,1537.63303060881
41.3988,1528.02759084791
41.4284,1604.33366969394
41.458,1852.12916246214
41.4876,2081.49663526242
41.5172,2439.32626976114
41.5468,3031.13723511601
41.5765,3869.55383580076
41.6061,5278.14833501507
41.6357,6860.56004036337
41.6653,7687.39165545091
41.6949,7013.25832492434
41.7245,6076.10931718803
41.7541,5837.10800807534
41.7837,5472.04238143293
41.8133,4790.73461150363
41.843,4022.00538176928
41.8726,3438.03701211309
41.9022,2832.54389505552
41.9318,2546.46922300708
41.9614,2318.24091520858
41.991,1910.28691557348
42.0206,1646.44567776656
42.0502,1382.60443995961
42.0798,1274.09017496635
42.1095,1286.84460141272
42.1391,1167.87218298017
42.1687,1141.48788694482
42.1983,1068.76723847966
42.2279,1038.81937436932
42.2575,1072.83714670256
42.2871,1049.91658257652
42.3167,1009.68247561386
42.3463,1025.18264379415
42.376,984.028263795423
42.4056,996.243188698286
42.4352,1042.36831483349
42.4648,990.415208613733
42.4944,991.683821056172
42.524,1003.18869828456
42.5536,978.935060565274
42.5832,961.292297342751
42.6128,986.668684830139
42.6425,975.216352624494
42.6721,1011.49714093508
42.7017,981.322906155396
42.7313,1006.0898384926
42.7609,1010.80356542213
42.7905,1080.10057181299
42.8201,1062.09320323015
42.8497,1197.68415741676
42.8793,1192.88429196098
42.909,1244.78439286915
42.9386,1458.6924629879
42.9682,1599.02690884629
42.9978,1974.65590312815
43.0274,2471.77927321663
43.057,3269.61453077688
43.0866,4558.96232761529
43.1162,6653.9380888293
43.1458,8972.27144298672
43.1755,9677.18466195764
43.2051,8224.8788694484
43.2347,7259.53313151688
43.2643,7012.81601076355
43.2939,6223.11440107672
43.3235,4919.50353178597
43.3531,3954.04843592336
43.3827,3073.44904137233
43.4123,2562.72072678336
43.442,2170.55600403633
43.4716,1984.08173562058
43.5012,1740.40612382232
43.5308,1614.31954254961
43.5604,1471.74571140263
43.59,1406.71938088829
43.6196,1431.88799192734
43.6492,1359.49310460813
43.6788,1380.65814266488
43.7085,1343.16481668349
43.7381,1422.69054826773
43.7677,1513.92563930013
43.7973,1569.76286579213
43.8269,1555.86982845611
43.8565,1724.47476446837
43.8861,1964.75916582579
43.9157,2159.7729566095
43.9453,2528.05482677433
43.975,3134.24226110366
44.0046,3769.29330642444
44.0342,4942.08341742343
44.0638,6565.20457604296
44.0934,8832.99596367288
44.123,11073.323242516
44.1526,11661.7934051144
44.1822,10524.9811638077
44.2118,9438.9384460142
44.2414,8768.13458950207
44.2711,7665.56811301705
44.3007,6001.06121762531
44.3303,4539.98654104971
44.3599,3601.96838210573
44.3895,2889.90413723515
44.4191,2436.69862092164
44.4487,2180.76514131899
44.4783,2031.74604776321
44.5079,1864.35418768918
44.5376,1709.31325706596
44.5672,1619.44601412715
44.5968,1632.0124453414
44.6264,1649.3435397039
44.656,1616.38984191053
44.6856,1680.62663975782
44.7152,1754.60901749664
44.7448,1723.04339051463
44.7744,1647.73629330642
44.8041,1577.50504710632
44.8337,1550.47998654558
44.8633,1509.58526740666
44.8929,1392.77994616421
44.9225,1311.92835519677
44.9521,1311.7083753784
44.9817,1333.16952573159
45.0113,1437.68909825034
45.0409,1562.20686175579
45.0706,1612.58493104608
45.1002,1636.25168236878
45.1298,1738.36932391525
45.1594,1868.42179616548
45.189,1984.10565275907
45.2186,2231.78641103263
45.2482,2653.42448705016
45.2778,3237.02422611036
45.3074,4134.9878910191
45.3371,5414.32189707351
45.3667,7188.45895020176
45.3963,9044.97006390853
45.4259,9669.17625294313
45.4555,8728.41271442968
45.4851,7604.01514131903
45.5147,7013.67103935418
45.5443,6375.32189707359
45.5739,5197.02994616402
45.6036,3821.22906155389
45.6332,2941.47124117048
45.6628,2396.90343203233
45.6924,1991.24217961653
45.722,1752.37302388162
45.7516,1585.08681022882
45.7812,1487.2209889001
45.8108,1436.51934073326
45.8404,1402.23216689098
45.8701,1358.7413387151
45.8997,1349.26404305416
45.9293,1326.04172274563
45.9589,1293.81331987891
45.9885,1330.47931382441
46.0181,1351.29498822738
46.0477,1450.28263795423
46.0773,1666.33703329969
46.1069,1914.97679112011
46.1366,2197.39434724094
46.1662,2323.54524049781
46.1958,2227.51799529095
46.2254,2048.09084791385
46.255,1930.22199798184
46.2846,1823.54894046417
46.3142,1637.8882907133
46.3438,1424.33299697276
46.3734,1293.66801210898
46.4031,1193.87617765816
46.4327,1092.66397578205
46.4623,1030.4154053145
46.4919,1019.90211907165
46.5215,1015.39030955586
46.5511,1027.16851664985
46.5807,1022.38950554995
46.6103,1018.90780619112
46.6399,1011.11873528423
46.6696,1042.05179952909
46.6992,1084.15376850606
46.7288,1115.29263370333
46.7584,1148.33400605449
46.788,1154.85969044415
46.8176,1243.3965691221
46.8472,1332.88193743693
46.8768,1420.20995962316
46.9064,1522.16313488058
46.9361,1653.78573831146
46.9657,1891.1877523553
46.9953,2186.68684830137
47.0249,2568.05449041367
47.0545,3118.66767574833
47.0841,3808.71332436065
47.1137,4386.87050117728
47.1433,4659.03935418768
47.1729,4796.08546433379
47.2025,5044.486041036
47.2322,5469.33467877567
47.2618,6094.30888290715
47.2914,6797.96804574504
47.321,7803.64480322903
47.3506,8896.55989232845
47.3802,9565.67507568115
47.4098,9802.77228388836
47.4394,10399.6251682368
47.469,11593.4742684157
47.4987,12578.9344096872
47.5283,12452.0524722502
47.5579,11226.7422611038
47.5875,9598.71342078713
47.6171,8382.40665993947
47.6467,7368.76379542402
47.6763,6309.32357887651
47.7059,4998.73225697954
47.7355,3909.88088829081
47.7652,3066.65926673391
47.7948,2576.4439959637
47.8244,2337.89064602961
47.854,2092.67877564749
47.8836,1984.7097208207
47.9132,1837.25336473755
47.9428,1729.96468213924
47.9724,1591.69492095527
48.002,1541.52792732167
48.0317,1524.89371005718
48.0613,1472.94618230744
48.0909,1445.64682139254
48.1205,1479.03095558546
48.1501,1443.70063908509
48.1797,1530.03363605786
48.2093,1606.80148048451
48.2389,1754.18062563068
48.2685,1959.39926000675
48.2982,2171.49057873484
48.3278,2472.78002018163
48.3574,3021.83652875874
48.387,3829.71736204585
48.4166,4822.81836528768
48.4462,6256.3871510259
48.4758,8089.53499327058
48.5054,9811.87420114361
48.535,9912.23814328982
48.5647,8665.27951564078
48.5943,7794.16318977124
48.6239,7148.8298015473
48.6535,6458.56945845944
48.6831,5303.07301480496
48.7127,4053.47931382436
48.7423,3122.16885301033
48.7719,2476.65107671604
48.8015,2007.04809956273
48.8312,1749.74234779682
48.8608,1495.40780619112
48.8904,1380.45509586278
48.92,1274.22973427514
48.9496,1199.50538358007
48.9792,1112.27648839555
49.0088,1018.83350151363
49.0384,1043.89468371466
49.068,947.007063572151
49.0977,1000
49.1273,999.026236125126
49.1569,985.605652759085
49.1865,994.434914228054
49.2161,985.41708711739
49.2457,992.665545087484
49.2753,984.338378742013
49.3049,950.361251261351
49.3345,1007.93001345895
49.3642,1007.95560040364
49.3938,1063.41910528086
49.4234,1077.10228802153
49.453,1079.32088799193
49.4826,1002.0736629667
49.5122,949.255720053837
49.5418,968.737638748742
49.5714,938.95190043727
49.601,928.000000000001
49.6307,954.97275479314
49.6603,941.070659488559
49.6899,875.621594349138
49.7195,850.344769593006
49.7491,907.947846567972
49.7787,907.044399596367
49.8083,915.760847628658
49.8379,951.867092866758
49.8675,904.749075008406
49.8972,878.899764547593
49.9268,929.83781965007
49.9564,954.934409687186
49.986,1006.41506895392
50.0156,1064.88324360699
50.0452,1051.02926337033
50.0748,1107.24520686176
50.1044,1212.84825033649
50.134,1362.29566094854
50.1636,1302.64951227717
50.1933,1443.09552640433
50.2229,1615.18304172276
50.2525,1837.90413723513
50.2821,2033.90346451396
50.3117,2277.04374158813
50.3413,2717.40060544904
50.3709,3389.56609485368
50.4005,4464.21265141317
50.4301,5738.9969727548
50.4598,7374.7621930712
50.4894,9159.39165545105
50.519,9624.21056172219
50.5486,8410.30575176578
50.5782,7577.771870794
50.6078,6913.14362596711
50.6374,6861.56441305079
50.667,5909.25227043397
50.6966,4595.30181695824
50.7263,3666.67406659933
50.7559,2892.35586949211
50.7855,2436.96870794079
50.8151,2140.94887319206
50.8447,1947.08072653883
50.8743,1734.64199192466
50.9039,1557.87722838882
50.9335,1475.39085099226
50.9631,1371.26547779274
50.9928,1294.43995963673
51.0224,1176.00605449042
51.052,1147.94380888291
51.0816,1028.38143289607
51.1112,1057.78405650857
51.1408,1025.68977119785
51.1704,970.321897073666
51.2,1004.01715438951
51.2296,977.51530440633
51.2593,976.415881561238
51.2889,954.808947191391
51.3185,936.360242179618
51.3481,933
51.3777,903.832156071307
51.4073,914.08005381769
51.4369,961.749663526242
51.4665,930.467204843595
51.4961,882.98150016818
51.5258,925.975773889633
51.5554,941.01849983182
51.585,930.366969391189
51.6146,985.213324360697
51.6442,989.882946518666
51.6738,1083.76622939791
51.7034,1099.27725437416
51.733,1095.31886982846
51.7626,1124.90211907165
51.7923,1226.01816347124
51.8219,1355.75908479138
51.8515,1501.31516986211
51.8811,1707.37907837199
51.9107,1852.02860026919
51.9403,2173.38748738643
51.9699,2504.21560713086
51.9995,2933.56897711979
52.0291,3719.78405650868
52.0588,4857.83652875903
52.0884,6218.65713324357
52.118,7990.5267406658
52.1476,9304.6666666667
52.1772,9172.60060565277
52.2068,8007.83148335024
52.2364,7013.04641775987
52.266,6773.47561385806
52.2956,6500.58950201884
52.3253,5532.19408005374
52.3549,4260.91860074006
52.3845,3279.3485868103
52.4141,2693.68819374372
52.4437,2181.86007399929
52.4733,1880.78869448185
52.5029,1721.73763874876
52.5325,1667.37436932391
52.5621,1637.81965006729
52.5918,1674.51059535822
52.6214,1800.34645139591
52.651,1860.40376850606
52.6806,1729.53178607469
52.7102,1588.4672048436
52.7398,1541.23687752356
52.7694,1477.52741338714
52.799,1364.39724184324
52.8286,1234.5015136226
52.8583,1141.24091520862
52.8879,1063.25832492431
52.9175,1020.47393205516
52.9471,994.537012113055
52.9767,959.722166162126
53.0063,901.208879919277
53.0359,857.865746971736
53.0655,841.653212243525
53.0951,838.401950891354
53.1247,846.21601615074
53.1544,838.83215607131
53.184,843.800201816348
53.2136,863.898721399732
53.2432,856.373696602755
53.2728,859.575849310459
53.3024,858.564076690214
53.332,831.28331090175
53.3616,837.682475613857
53.3912,878.038681466538
53.4209,890.999999999998
53.4505,870.092499159095
53.4801,875.21695257316
53.5097,886.153432032301
53.5393,883.381096535487
53.5689,893.222334342415
53.5985,884.343876177661
53.6281,889.100908173569
53.6577,914.931718802557
53.6874,932.740242261102
53.717,1001.30709720821
53.7466,1056.7177934746
53.7762,1087.01211305519
53.8058,1180.76387487388
53.8354,1302.9011099899
53.865,1436.25731584259
53.8946,1634.46635262447
53.9242,1803.80423814329
53.9539,1846.2038345106
53.9835,1867.89232839839
54.0131,1944.44904137236
54.0427,2114.47258661285
54.0723,2139.15477792734
54.1019,2090.15539858729
54.1315,2169.64345778674
54.1611,2323.01547779274
54.1907,2569.87151025899
54.2204,2873.81567440298
54.25,3301.02725437415
54.2796,3960.32290615529
54.3092,4878.5603767239
54.3388,5974.92566431197
54.3684,7152.90578734857
54.398,7986.54086781027
54.4276,7790.22233434248
54.4572,7087.5060565276
54.4869,6640.48671375714
54.5165,6271.09216279853
54.5461,6037.89367429338
54.5757,5424.50353178599
54.6053,4457.17726202487
54.6349,3624.65275908482
54.6645,2975.26000672726
54.6941,2591.18062563067
54.7237,2246.88829071334
54.7534,1961.86377396567
54.783,1762.06760847627
54.8126,1558.51547779272
54.8422,1436.35216952574
54.8718,1342.14934409688
54.9014,1268.32290615541
54.931,1189.80349932705
54.9606,1171.66061217626
54.9902,1123.37537840565
55.0199,1086.59858681023
55.0495,1075.13824419778
55.0791,1082.81533804238
55.1087,1065.87651413189
55.1383,1135.54826774302
55.1679,1190.473259334
55.1975,1279.9034320323
55.2271,1417.48133198786
55.2567,1626.63033972417
55.2864,1902.73351278603
55.316,2255.18365287592
55.3456,2520.26942482342
55.3752,2660.25731584259
55.4048,2756.95356662183
55.4344,2550.33568785733
55.464,2289.11604439959
55.4936,2189.18842530283
55.5232,2093.14665321226
55.5529,1858.16414396234
55.5825,1620.59488559891
55.6121,1414.38210561722
55.6417,1329.00706357214
55.6713,1158.88492597578
55.7009,1134.70871173898
55.7305,1202.57248570469
55.7601,1304.51009421266
55.7897,1387.81130171544
55.8194,1460.61957618567
55.849,1539.95154777928
55.8786,1541.79582912883
55.9082,1423.4843592331
55.9378,1431.72048435923
55.9674,1499.03432032301
55.997,1574.18197107299
56.0266,1584.96569122098
56.0562,1541.17092866756
56.0858,1498.28960645812
56.1155,1628.1039354188
56.1451,1764.56393001346
56.1747,1753.48873192061
56.2043,1631.38647830476
56.2339,1439.33277254374
56.2635,1495.50353178607
56.2931,1492.71846619576
56.3227,1484.15074024227
56.3523,1367.86848301379
56.382,1292.73696602758
56.4116,1341.22502522704
56.4412,1364.26783310902
56.4708,1430.97073662961
56.5004,1715.86411032627
56.53,1907.35935397038
56.5596,2187.15237134208
56.5892,2165.05718129836
56.6188,2005.36541049801
56.6485,1844.71173898421
56.6781,1612.96804574503
56.7077,1672.60363391655
56.7373,1586.42684157419
56.7669,1420.20248906827
56.7965,1283.07133243609
56.8261,1087.81399260007
56.8557,1026.63673057518
56.8853,1017.15275908478
56.915,972.385469223
56.9446,931.696602758159
56.9742,871.580894719133
57.0038,921.335464333775
57.0334,971.622603430874
57.063,1082.07534476959
57.0926,1086.23149394347
57.1222,1102.55264043054
57.1518,1155.51463168518
57.1815,1241.12045760429
57.2111,1462.17658930374
57.2407,1636.41136898756
57.2703,2080.54187689198
57.2999,2467.43068640642
57.3295,3061.32896064572
57.3591,3593.06390850994
57.3887,4110.25201884257
57.4183,4456.07803565418
57.448,4234.15472586614
57.4776,3891.90514631681
57.5072,3620.35666218029
57.5368,3354.40565085774
57.5664,3342.047090481
57.596,2944.42934051141
57.6256,2578.25731584253
57.6552,2353.99226370669
57.6848,2139.74495289368
57.7145,2066.15472586614
57.7441,2173.68516649848
57.7737,2287.63795423956
57.8033,2497.9838546922
57.8329,2654.52505886312
57.8625,2716.34858681024
57.8921,2671.88597376388
57.9217,2524.89202825431
57.9513,2566.76783310902
57.981,2638.70736629668
58.0106,2777.67204843593
58.0402,2860.743020518
58.0698,2828.18506056527
58.0994,2649.94248234109
58.129,2322.13488059198
58.1586,1980.04811574695
58.1882,1895.23208879919
58.2178,1856.09989909183
58.2475,1770.54811574696
58.2771,1605.64783047426
58.3067,1384.8903464514
58.3363,1369.04576043069
58.3659,1329.60174907501
58.3955,1345.62058526741
58.4251,1407.92563930014
58.4547,1564.32189707367
58.4843,1686.05079044735
58.514,1953.94046417755
58.5436,2113.16756393001
58.5732,2305.20686175578
58.6028,2239.87251934073
58.6324,1934.91655450872
58.662,1604.77564749408
58.6916,1580.60343087789
58.7212,1602.80215343203
58.7508,1496.97140935084
58.7805,1301.29297006391
58.8101,1099.85733512789
58.8397,993.514295324582
58.8693,907.180625630674
58.8989,927.674293405107
58.9285,918.112008072651
58.9581,905.076690211909
58.9877,965.741588156122
59.0173,968.261352169524
59.0469,1093.87016481667
59.0766,1143.55465859401
59.1062,1127.21635262449
59.1358,1030.60612176252
59.1654,1012.62563067609
59.195,980.810565275909
59.2246,1028.21056172217
59.2542,1074.81668348469
59.2838,1051.34017496636
59.3134,1083.73259334006
59.3431,1171.60746720485
59.3727,1237.68304172274
59.4023,1338.44904137234
59.4319,1385.03094517323
59.4615,1348.48956931359
59.4911,1342.18869828456
59.5207,1290.71140262362
59.5503,1224.56710393542
59.5799,1227.27860026918
59.6096,1165.02219979818
59.6392,1048.90211907164
59.6688,959.226110363399
59.6984,895.982172889337
59.728,853.607803565426
59.7576,850.634589502018
59.7872,806.164480322907
59.8168,773.788765556676
59.8464,769.348586810229
59.8761,803.477632021521
59.9057,788.400269088467
59.9353,786.691790040379
59.9649,815.132189707367
59.9945,807.632357887653
60.0241,833.493943472416
60.0537,804.378405650845
60.0833,861.50252270435
60.1129,924.859401278168
60.1426,1013.46500672947
60.1722,1117.56037672384
60.2018,1185.58728557013
60.2314,1157.37954239569
60.261,1105.45005045409
60.2906,1153.5893037336
60.3202,1185.56258411844
60.3498,1220.57786747392
60.3794,1265.69323915237
60.4091,1261.90915208614
60.4387,1293.06155398587
60.4683,1369.74503868146
60.4979,1416.48788694482
60.5275,1525.72250252271
60.5571,1719.83753784059
60.5867,1971.18701648167
60.6163,2352.76716016145
60.6459,2717.86612848979
60.6756,2938.41944164142
60.7052,2922.10363391658
60.7348,2689.31886982845
60.7644,2485.24789774637
60.794,2376.98452220727
60.8236,2340.76454759502
60.8532,2364.70837537841
60.8828,2288.69851951547
60.9124,2117.66330306091
60.9421,2046.16414396233
60.9717,2130.41453566622
61.0013,2198.47595021864
61.0309,2166.13118062563
61.0605,2083.27388963662
61.0901,1964.35553313153
61.1197,1858.83148335016
61.1493,1791.90514631686
61.1789,1819.41991924629
61.2086,1843.20585267407
61.2382,1834.31247897746
61.2678,1875.73384925975
61.2974,1964.77430205179
61.327,2123.6347124117
61.3566,2185.12045760431
61.3862,2149.65657584931
61.4158,2075.54288597375
61.4454,2025.90814266487
61.4751,2009.80625630675
61.5047,1931.1786074672
61.5343,1818.75370121131
61.5639,1646.83585603767
61.5935,1534.87756474941
61.6231,1481.6316851665
61.6527,1412.50740242261
61.6823,1259.88832828794
61.7119,1190.13656239489
61.7416,1156.30282637954
61.7712,1120.14160780356
61.8008,1090.13824419778
61.8304,1073.92934051144
61.86,1051.40800538176
61.8896,1098.11907164481
61.9192,1124.75908479139
61.9488,1169.5438950555
61.9784,1220.48166834847
62.008,1131.18707940779
62.0377,1031.21695257316
62.0673,1023.59334006055
62.0969,1049.86406460296
62.1265,1033.79717457115
62.1561,948.047763202148
62.1857,915.800201816344
62.2153,925.090847913863
62.2449,955.583249243186
62.2745,934.336696939119
62.3042,958.798788694471
62.3338,1041.04776320217
62.3634,1147.79044735956
62.393,1283.97173620457
62.4226,1418.56306760848
62.4522,1540.13723511604
62.4818,1589.42227456258
62.5114,1554.61553985873
62.541,1448.45610494451
62.5707,1362.05484522208
62.6003,1398.38042381432
62.6299,1286.03060881265
62.6595,1226.92801883619
62.6891,1175.84656796771
62.7187,1091.09788092835
62.7483,1062.39858728556
62.7779,988.695827725431
62.8075,1022.30844265052
62.8372,1028.86747393205
62.8668,1064.17765814266
62.8964,1166.46115035318
62.926,1250.62596703667
62.9556,1316.68102288022
62.9852,1412.73864783049
63.0148,1507.526740666
63.0444,1531.00269179005
63.074,1566.46585940128
63.1037,1536.78102926338
63.1333,1466.08142664874
63.1629,1398.12613521696
63.1925,1408.21796165491
63.2221,1313.78136562395
63.2517,1272.34488559892
63.2813,1244.98856374034
63.3109,1180.52371342079
63.3405,1202.46668909826
63.3702,1209.20686175578
63.3998,1136.61015808946
63.4294,1271.17261103634
63.459,1242.58358560377
63.4886,1286.36427850657
63.5182,1358.12382234186
63.5478,1438.13218970737
63.5774,1683.76757484021
63.607,1969.4276581427
63.6367,2390.09687184663
63.6663,2985.70736629669
63.6959,3938.03800874526
63.7255,5156.9650067293
63.7551,6663.91220988911
63.7847,6964.71140262357
63.8143,5631.76648721407
63.8439,4308.14530776996
63.8735,3921.33568785738
63.9032,3968.82368775235
63.9328,4258.61654894048
63.9624,4265.78506559026
63.992,3403.61911170932
64.0216,2523.64211234437
64.0512,1995.91254624953
64.0808,1611.12516823685
64.1104,1400.55701311806
64.14,1281.85065590312
64.1697,1238.9401076716
64.1993,1238.90649175914
64.2289,1127.92700975445
64.2585,1163.72653884965
64.2881,1171.83882907133
64.3177,1159.21224352506
64.3473,1211.62798520013
64.3769,1307.49495289365
64.4065,1446.01311806259
64.4362,1657.52674066602
64.4658,1833.67294751014
64.4954,2175.11234443319
64.525,2591.82273797514
64.5546,3301.55013458954
64.5842,4046.57013118052
64.6138,5137.87722838883
64.6434,5557.02153432028
64.673,5214.77026572487
64.7027,4658.24419778003
64.7323,4286.91624621592
64.7619,3834.79407806191
64.7915,3951.52640430539
64.8211,3776.29599730909
64.8507,3365.50050454091
64.8803,2907.64333781969
64.9099,2494.98789101914
64.9395,1893.43356878577
64.9691,1673.87348586808
64.9988,1433.75546585938
65.0284,1329.85368314834
65.058,1248.61641991923
65.0876,1159.29969727547
65.1172,1109.01076353851
65.1468,1092.67631224764
65.1764,1078.69223007064
65.206,1056.23780692903
65.2356,1118.12247644684
65.2653,1106.00067272116
65.2949,1013.19710729903
65.3245,971.569122098894
65.3541,996.849932705248
65.3837,1051.66700302724
65.4133,1136.00605449042
65.4429,1164.05753701211
65.4725,1248.91927346116
65.5021,1390.30373360243
65.5318,1537.20020188425
65.5614,1749.39219643457
65.591,1973.81466532125
65.6206,2011.2934051144
65.6502,2117.90211907166
65.6798,2094.73023881601
65.7094,1979.05047106324
65.739,2002.55364951227
65.7686,1934.7648839556
65.7983,1992.79616548939
65.8279,1933.65948855989
65.8575,1861.76757484024
65.8871,1904.34140598723
65.9167,1929.22543741588
65.9463,2010.1675075681
65.9759,2270.82004709044
66.0055,2584.33781965001
66.0351,3101.97073662965
66.0648,3680.30406996291
66.0944,4269.23553162863
66.124,4490.63471241169
66.1536,4132.44735956943
66.1832,3540.59623149406
66.2128,3173.824419778
66.2424,3102.22502522704
66.272,3170.75100942126
66.3016,3255.35822401615
66.3313,3014.11839892365
66.3609,2728.57248570473
66.3905,2420.81056527591
66.4201,2382.58324924319
66.4497,2312.41170534815
66.4793,2355.70760430686
66.5089,2697.30474268411
66.5385,3031.53279515636
66.5681,3486.41184387608
66.5978,3914.71846619573
66.6274,4112.0437268752
66.657,3920.56628532975
66.6866,3491.27211570794
66.7162,3195.8002018163
66.7458,3025.05215343202
66.7754,2995.14362596704
66.805,2866.9996636394
66.8346,2633.4460141271
66.8643,2279.24899057879
66.8939,1996.72452068617
66.9235,1709.01715438946
66.9531,1525.62920592196
66.9827,1403.49041372353
67.0123,1245.14833501513
67.0419,1119.94885598922
67.0715,1056.75512949882
67.1011,990.754793138238
67.1308,976.34993270525
67.1604,980.691557349479
67.19,896.476286579193
67.2196,877.80820995962
67.2492,918.223679784723
67.2788,884.442986881938
67.3084,863.681022880216
67.338,858.340060544904
67.3676,831.843255970399
67.3973,816.696939118735
67.4269,853.731157469712
67.4565,892.261688530108
67.4861,900.056508577195
67.5157,976.884589502045
67.5453,969.485704675408
67.5749,980.373023881592
67.6045,1032.02086137281
67.6341,1073.438950555
67.6638,1133.0454086781
67.6934,1302.315948856
67.723,1531.57820383452
67.7526,1658.6094853683
67.7822,1738.38997308211
67.8118,1735.31584258325
67.8414,1625.3905146317
67.871,1566.02152707703
67.9006,1540.93068640647
67.9302,1515.6034308779
67.9599,1483.20383451059
67.9895,1445.20861372813
68.0191,1336.80760174909
68.0487,1207.20955264044
68.0783,1116.45491251682
68.1079,1091.04137235116
68.1375,1021.18230743359
68.1671,903.677658142652
68.1967,869.046081399263
68.2264,862.012445341406
68.256,847.905787348586
68.2856,837.22805247225
68.3152,811.229061553989
68.3448,781.573351278604
68.3744,802.926673393886
68.404,840.885973763875
68.4336,859.991254624959
68.4632,858.070995962312
68.4929,867.168853010433
68.5225,911.061217625287
68.5521,930.445827725436
68.5817,984.906155398577
68.6113,1099.40329633366
68.6409,1155.0201884253
68.6705,1261.94651866803
68.7001,1493.67608476291
68.7297,1697.11103633917
68.7594,1982.6781029263
68.789,2351.19609821732
68.8186,2651.73250336473
68.8482,2809.96535486041
68.8778,2737.76892028252
68.9074,2541.00369996638
68.937,2430.47846567968
68.9666,2480.91725529767
68.9962,2560.0797174571
69.0259,2514.44414535664
69.0555,2394.18264379415
69.0851,2232.71510258992
69.1147,1998.76177658144
69.1443,1887.64244870503
69.1739,1797.36024217962
69.2035,1766.94414535666
69.2331,1712.70198452743
69.2627,1548.59165825764
69.2924,1412.49730820996
69.322,1381.11604439959
69.3516,1369.97376387488
69.3812,1358.82099596231
69.4108,1355.33636057854
69.4404,1344.84695593676
69.47,1275.21291624623
69.4996,1181.45794078062
69.5292,1130.57349478641
69.5589,1067.61755802221
69.5885,1010.56460296098
69.6181,1058.76454759503
69.6477,1065.92230070635
69.6773,1039.40982503365
69.7069,1050.03329969727
69.7365,1062.77463841238
69.7661,1081.28095558548
69.7957,1150.23915237134
69.8254,1075.94651866802
69.855,1028.5171601615
69.8846,998.336696939119
69.9142,986.136226034311
69.9438,979.660948536839
69.9734,994.730148048449
70.003,965.850319542556
70.0326,968.712748065917
70.0622,1017.15881561238
70.0919,1017.2852337706
70.1215,1026.69828456105
70.1511,1075.07806191115
70.1807,1196.27951564076
70.2103,1222.29095190044
70.2399,1278.34185733514
70.2695,1331.95055499495
70.2991,1302.70702993608
70.3287,1276.85598923284
70.3584,1313.05348133199
70.388,1278.33064244871
70.4176,1251.62449528937
70.4472,1235.23410696267
70.4768,1186.30036999664
70.5064,1248.98990918264
70.536,1295.20827725437
70.5656,1411.90514631688
70.5952,1523.99663639422
70.6249,1610.54004037685
70.6545,1750.97275479313
70.6841,1876.12041708714
70.7137,1723.29912516825
70.7433,1571.63572149344
70.7729,1461.2307433569
70.8025,1340.66487213997
70.8321,1428.23747056844
70.8617,1503.13824419778
70.8913,1454.66890982502
70.921,1363.2774974773
70.9506,1324.18298015474
70.9802,1248.33546433378
71.0098,1289.75142953246
71.0394,1350.24318869828
71.069,1437.58694920956
71.0986,1469.79542395693
71.1282,1415.9858728557
71.1578,1336.41473259335
71.1875,1285.38492597577
71.2171,1277.62966700303
71.2467,1283.90783720148
71.2763,1310.11305518169
71.3059,1361.34678775648
71.3355,1322.14026236125
71.3651,1326.26244952894
71.3947,1360.18533467876
71.4243,1449.2946518668
71.454,1486.88694481831
71.4836,1662.11974436594
71.5132,1857.54994954592
71.5428,2042.93979145644
71.5724,2173.35969044415
71.602,2141.68113017152
71.6316,1971.36831483348
71.6612,1830.95693135936
71.6908,1733.02253615876
71.7205,1688.96804574504
71.7501,1639.69717362046
71.7797,1639.19038008746
71.8093,1549.69424823411
71.8389,1497.68943472412
71.8685,1325.391860074
71.8981,1236.8792465523
71.9277,1209.05450874829
71.9573,1027.69021190716
71.987,1034.87487386478
72.0166,964.331090174971
72.0462,929.141944164133
72.0758,832.256643121425
72.1054,816.511604439961
72.135,829.419919246297
72.1646,838.771947527748
72.1942,768.893710057182
72.2238,765.310901749664
72.2535,776.93340060545
72.2831,684.663975782041
72.3127,779.488559892335
72.3423,740.008745375042
72.3719,740.982509249916
72.4015,737
72.4311,787.794078061907
72.4607,788
72.4903,782.076690211908
72.52,866.842530282636
72.5496,855.231752438614
72.5792,1016.33703329967
72.6088,1018.05314497141
72.6384,1131.41756393
72.668,1069.37874201143
72.6976,1116.95358224017
72.7272,1081.69279946164
72.7568,1102.85368314833
72.7865,1218.14732593342
72.8161,1325.34757738895
72.8457,1443.19542549614
72.8753,1557.92129162461
72.9049,1540.70592193809
72.9345,1528.7695930037
72.9641,1462.27783383787
72.9937,1400.78230148048
73.0233,1262.99798183651
73.053,1253.74873864783
73.0826,1295.96029609691
73.1122,1237.35923309788
73.1418,1141.55701311806
73.1714,1129.30272452069
73.201,1023.38761776579
73.2306,952.21493440968
73.2602,868.777329297003
73.2898,817.534993270527
73.3195,793.493440968721
73.3491,733.125126135221
73.3787,779.114401076722
73.4083,711.441977800211
73.4379,688.766565758495
73.4675,706.780619111711
73.4971,691.174571140262
73.5267,688.851328624285
73.5563,744.070659488551
73.586,726.07265388497
73.6156,740.363942145979
73.6452,782.526740665991
73.6748,825.838156123818
73.7044,808.955264043055
73.734,816.371342078707
73.7636,797.662853297445
73.7932,721.977800201815
73.8228,692.19643457787
73.8524,735.856662180346
73.8821,705.846619576185
73.9117,712.853683148334
73.9413,736.961305518172
73.9709,706.263370333002
74.0005,705.687521022535
74.0301,724.498990578735
74.0597,674.304406323589
74.0893,655.892028254289
74.1189,658.091520861372
74.1486,666.719475277496
74.1782,691.259670366632
74.2078,696.473595694585
74.2374,780.258411843848
74.267,829.643794147332
74.2966,814.487386478298
74.3262,799.537012113056
74.3558,810.356205852673
74.3854,753.038345105957
74.4151,745.000672947512
74.4447,778.571140262364
74.4743,759.871173898415
74.5039,748.275908479139
74.5335,760.236797847291
74.5631,742.105953582235
74.5927,711.660834454916
74.6223,697.343760511268
74.6519,708.350487722836
74.6816,716.104944500504
74.7112,726.067631224765
74.7408,782.68617558023
74.7704,785.334006054495
74.8,790.37920592194
74.8296,797.680457450387
74.8592,764.87184661958
74.8888,712.715343203242
74.9184,716.365623948866
74.9481,752.333333333335
74.9777,719.948855989246
75.0073,716.089471913896
75.0369,701.15237134208
75.0665,683.451884253029
75.0961,679.709048099563
75.1257,649.509249915907
75.1553,640.006393001345
75.1849,628.815338042385
75.2146,609.261352169524
75.2442,605.50924991591
75.2738,608.246298788694
75.3034,619.521358896736
75.333,616.167507568115
75.3626,608.168909825034
75.3922,648.216279852016
75.4218,681.017490750083
75.4514,683.207267833109
75.4811,677.226370669358
75.5107,707.170534813327
75.5403,741.763122476445
75.5699,792.626303397234
75.5995,814.886310124456
75.6291,806.698519515478
75.6587,819.849646821389
75.6883,869.540195089147
75.7179,913.059872182979
75.7476,947.024562584115
75.7772,1010.70265724858
75.8068,1060.27144298688
75.8364,1071.54878869448
75.866,1092.14900773629
75.8956,1092.2539522368
75.9252,1083.89602960969
75.9548,1116.12108980828
75.9844,1153.18533467878
76.0141,1211.33916554509
76.0437,1317.25126135216
76.0733,1425.20955264044
76.1029,1559.88660834454
76.1325,1646.54793138244
76.1621,1715.18298015474
76.1917,1715.87079407807
76.2213,1601.32593340062
76.2509,1579.54591321896
76.2806,1644.39959636732
76.3102,1671.23014804845
76.3398,1665.38109653549
76.3694,1628.31550622268
76.399,1517.10565275909
76.4286,1394.0958627649
76.4582,1309.18499831819
76.4878,1227.45087483178
76.5174,1175.65960309452
76.5471,1152.61352169526
76.5767,1077.49125168237
76.6063,1049.29767911202
76.6359,1017.21863437603
76.6655,939.242261103633
76.6951,881.723175243869
76.7247,820.341069626643
76.7543,827.175916582578
76.7839,813.777254374157
76.8135,795.875210225362
76.8432,773.994954591324
76.8728,781.03701211306
76.9024,799.365287588295
76.932,824.897073662952
76.9616,864.399730820996
76.9912,866.354860410361
77.0208,903.538849646817
77.0504,988.17900403768
77.08,1098.33736966029
77.1097,1202.78002018164
77.1393,1294.67900403771
77.1689,1410.79549276826
77.1985,1476.32996972756
77.2281,1531.03162853297
77.2577,1525.14968045744
77.2873,1487.14766229398
77.3169,1471.78708375379
77.3465,1466.22072678331
77.3762,1502.45509586276
77.4058,1520.57248570468
77.4354,1496.73687752357
77.465,1406.16178943826
77.4946,1255.71342078709
77.5242,1182.2799461642
77.5538,1158.3810965355
77.5834,1094.82811974437
77.613,1065.46971736204
77.6427,1033.79212916248
77.6723,1056.07265388497
77.7019,1007.98452220727
77.7315,994.280188361921
77.7611,1008.92028254289
77.7907,994.03430877901
77.8203,985.828398384924
77.8499,917.724184325579
77.8795,827.722166162126
77.9092,812.600269178994
77.9388,801.187689202839
77.9684,856.773965691215
77.998,818
78.0276,812.019845274135
78.0572,787.84224688867
78.0868,761.470390309554
78.1164,757.361251261357
78.146,773.628994281877
78.1757,717.402759084791
78.2053,745.957282206529
78.2349,731.599394550958
78.2645,745.560228802158
78.2941,810.475277497477
78.3237,829.370669357547
78.3533,873.353514968048
78.3829,926.497308209986
78.4125,1037.68012108981
78.4422,1113.5126135217
78.4718,1242.0915208614
78.5014,1370.50756811301
78.531,1539.27312478978
78.5606,1623.52489905788
78.5902,1689.25428859737
78.6198,1732.84729229735
78.6494,1701.86675639299
78.679,1757.16885301043
78.7087,1680.3434241507
78.7383,1642.74024226111
78.7679,1712.63471241171
78.7975,1747.72855701311
78.8271,1917.1601076354
78.8567,2114.91790040373
78.8863,2430.15943491426
78.9159,2881.90043726866
78.9455,3206.70558546439
78.9752,2892.77732929697
79.0048,2330.01379078383
79.0344,1931.61709286681
79.064,1746.58829465186
79.0936,1685.34376051128
79.1232,1891.81056527592
79.1528,2004.58493104607
79.1824,2107.52270433903
79.212,1959.28667563934
79.2417,1611.32896064576
79.2713,1277.78372014803
79.3009,1094.40780619113
79.3305,1037.3259334006
79.3601,1004.82946518669
79.3897,947.874537504201
79.4193,935.608344549126
79.4489,930.691220988881
79.4785,773.352169525733
79.5082,793.932032301481
79.5378,818.685166498486
79.5674,780.043054154041
79.597,717.830417227454
79.6266,747.958964009416
79.6562,713.132189707377
79.6858,797.413862718695
79.7154,739.404978136574
79.745,803.500840901449
79.7746,849.893674293396
79.8043,916.765220316167
79.8339,980.601412714443
79.8635,1046.68146653211
79.8931,978.491924629877
79.9227,1011.84359233098
79.9523,996.576185671039
79.9819,927.037012113052
80.0115,948.948183041719
80.0411,1057.26673393876
80.0708,1070.89942818702
80.1004,1142.15208613727
80.13,1277.7880928355
80.1596,1351.50218634376
80.1892,1296.42462987887
80.2188,1336.75613858056
80.2484,1297.39858728557
80.278,1308.51446837147
80.3076,1317.62462159435
80.3373,1392.66801210899
80.3669,1407.43876177658
80.3965,1523.76252943157
80.4261,1571.55802219979
80.4557,1523.23309788093
80.4853,1520
80.5149,1476.20921627986
80.5445,1497.11099899091
80.5741,1375.2799461642
80.6038,1464.60847628656
80.6334,1386.7147662294
80.663,1280.30282637952
80.6926,1307.38076017491
80.7222,1343.58526740666
80.7518,1224.45356662182
80.7814,1335.64648503195
80.811,1344.6458123108
80.8406,1257.83580080753
80.8703,1291.36596030945
80.8999,1331.43491422805
80.9295,1326.33568785738
80.9591,1355.60733512787
80.9887,1370.4419778002
81.0183,1315.72351160443
81.0479,1314.75538358008
81.0775,1212.25664312144
81.1071,1097.75681130171
81.1368,1138.95558546433
81.1664,1137.128489741
81.196,1120.65893037336
81.2256,1152.41958277254
81.2552,1157.32963336697
81.2848,1193.55566767574
81.3144,1201
81.344,1237.18567103935
81.3736,1289.17356205853
81.4033,1397.89266487216
81.4329,1601.29532458797
81.4625,1738.41607803564
81.4921,1908.97981836532
81.5217,2010.61103633917
81.5513,2044.50824083417
81.5809,2030.00504540868
81.6105,2022.63795423957
81.6401,1935.86478304741
81.6698,1957.35822401615
81.6994,1896.09690444143
81.729,1903.62428523377
81.7586,1815.84291960981
81.7882,1751.03835800809
81.8178,1635.00302724522
81.8474,1592.16582576522
81.877,1477.65141318977
81.9066,1401.35250588632
81.9363,1364.84123780692
81.9659,1281.24621594347
81.9955,1211.42496635261
82.0251,1179.84594685503
82.0547,1105.38916918937
82.0843,1010.32570659491
82.1139,1005.64480322906
82.1435,965.952909519008
82.1731,922.045423956931
82.2028,886.3652875883
82.2324,873.169189371006
82.262,884.664199192466
82.2916,900.489404641777
82.3212,810.490750084099
82.3508,762.782974427994
82.3804,731.853010427173
82.41,740.828456104943
82.4396,738.118102288018
82.4693,771.271442986871
82.4989,749.636730575177
82.5285,732.005045408678
82.5581,719.716016150743
82.5877,726.198789101917
82.6173,760.533804238139
82.6469,771.742934051143
82.6765,795.239152371343
82.7061,834.71140262361
82.7357,806.211978465667
82.7654,775.622603430879
82.795,805.568449377724
82.8246,794.168909825043
82.8542,772.250252270435
82.8838,784.273461150351
82.9134,764.644683714676
82.943,726.79818365287
82.9726,717.646821392532
83.0022,747.75782038345
83.0319,724.418909825038
83.0615,714.353178607467
83.0911,725.405987218298
83.1207,713.203230148046
83.1503,700.31516986209
83.1799,703.393541876892
83.2095,695.304845222072
83.2391,714.641103262692
83.2687,737.136898755466
83.2984,765.813930013459
83.328,777.985536495126
83.3576,817.958627648836
83.3872,861.1032974428
83.4168,917.20787083753
83.4464,944.797510931714
83.476,980.701211305518
83.5056,1055.4217961655
83.5352,1097.26976118399
83.5649,1166.57046754119
83.5945,1243.35666218034
83.6241,1307.92398250925
83.6537,1368.34611503531
83.6833,1475.60026917899
83.7129,1609.66061217624
83.7425,1753.77564749411
83.7721,1902.30686406463
83.8017,1952.02119071645
83.8314,1900.72452068618
83.861,1824.92395693135
83.8906,1728.93205516313
83.9202,1640.18869828456
83.9498,1593.93674293406
83.9794,1557.09283551968
84.009,1544.94382778338
84.0386,1524.96064581231
84.0682,1469.4939434724
84.0979,1406.17524386141
84.1275,1337.43390514632
84.1571,1267.58142664871
84.1867,1246.44399596367
84.2163,1193.42549613187
84.2459,1132.40915208614
84.2755,1138.21190716448
84.3051,1132.16750756811
84.3347,1138.43842530283
84.3644,1114.57248570468
84.394,1151.23646148673
84.4236,1232.99932705248
84.4532,1287.19778002018
84.4828,1316.95223679785
84.5124,1382.07974427995
84.542,1398.56004036324
84.5716,1325.39757820383
84.6012,1331.8980827447
84.6309,1339.43068640646
84.6605,1340.49344096872
84.6901,1373.63269424822
84.7197,1429.76581426649
84.7493,1458.00908173562
84.7789,1515.66565758494
84.8085,1549.85733512787
84.8381,1508.65657584931
84.8677,1523.34207870837
84.8974,1452.70390309557
84.927,1347.01109989908
84.9566,1218.39522367978
84.9862,1185.16689098253
85.0158,1112.23444332324
85.0454,1088.88698284562
85.075,1054.69862092163
85.1046,1031.52355316286
85.1342,980.584931046073
85.1639,899.021527077024
85.1935,834.106325706594
85.2231,786.255297679113
85.2527,763.315506222663
85.2823,706
85.3119,700.88227379751
85.3415,665.266397578193
85.3711,609.584791386272
85.4007,625.989572822054
85.4304,645.190380087466
85.46,596.755383580082
85.4896,584.326942482341
85.5192,580.548940464178
85.5488,580.378869448185
85.5784,572.54120417087
85.608,560.906491759165
85.6376,559.374369323916
85.6672,576.554508748316
85.6968,581.039354187693
85.7265,548.79414732593
85.7561,544.449528936732
85.7857,583.352842246889
85.8153,593.059535822402
85.8449,579.613055181701
85.8745,542.732929700639
85.9041,532.776656575848
85.9337,533.93943472409
85.9633,577.124117053485
85.993,616.509586276489
86.0226,612.251682368776
86.0522,609.842246888658
86.0818,586.202825428863
86.1114,595.952573158431
86.141,580.976110363398
86.1706,637.564413050793
86.2002,620.595694584593
86.2298,604.149394347227
86.2595,660.355869492096
86.2891,662.52068617558
86.3187,679.724427994629
86.3483,750.183316515305
86.3779,755.309451732264
86.4075,843.612045760422
86.4371,923.551967709379
86.4667,974.207870837515
86.4963,1065.33882907134
86.526,1128.71947527751
86.5556,1188.02657248569
86.5852,1278.666218035
86.6148,1329.93541876892
86.6444,1251.21964345779
86.674,1213.75008409015
86.7036,1182.29744279946
86.7332,1189.99697275481
86.7628,1292.86915573495
86.7925,1300.43068640646
86.8221,1292.50050454087
86.8517,1191.01547258661
86.8813,1169.67900403769
86.9109,1135.27547931383
86.9405,1108.43222334342
86.9701,1110.78331090175
86.9997,1081.2398250925
87.0293,1020.13824419778
87.059,952.895020188435
87.0886,871.912209889008
87.1182,833.790447359564
87.1478,881.216616212581
87.1774,758.777927321669
87.207,753.661957618561
87.2366,727.540195089137
87.2662,696.461641991932
87.2958,662.270770265723
87.3255,668.05819038009
87.3551,644.599596231497
87.3847,659.893037336027
87.4143,590.273797510932
87.4439,601.410497981159
87.4735,621.082408341742
87.5031,625.309788092828
87.5327,569.425639300124
87.5623,623.900100908178
87.592,597.067272115714
87.6216,621.957954927689
87.6512,644.868438761771
87.6808,634.110998990916
87.7104,650.754120417088
87.74,638.244870501175
87.7696,643.862718707942
87.7992,614.817356205856
87.8288,690.502186343757
87.8585,652.356662180351
87.8881,729.993609149001
87.9177,764.6458123108
87.9473,760.270524899058
87.9769,815.132189707352
88.0065,799.076353851327
88.0361,767.851951547775
88.0657,737.866801210896
88.0953,750.001009081737
88.125,703.432032301481
88.1546,722.280524722508
88.1842,742.479650185001
88.2138,725.607803565419
88.2434,747.804172274561
88.273,698.061553985877
88.3026,747.409687184662
88.3322,743.972409152085
88.3618,639.681802892724
88.3915,640.563740329636
88.4211,636.639973082101
88.4507,634.221997981837
88.4803,595.076353851337
88.5099,641.952557200543
88.5395,617.456104944496
88.5691,606.897073662966
88.5987,614.677658142665
88.6283,577.145307769927
88.6579,584.745038681465
88.6876,537.216016150751
88.7172,556.328624285239
88.7468,571.195761856713
88.7764,573
88.806,541.034993270525
88.8356,588.559367642108
88.8652,539.060544904141
88.8948,531.14199192463
88.9244,524.58324924319
88.9541,510.653884964681
88.9837,543.216016150746
89.0133,523.301379078373
89.0429,549.411705348129
89.0725,567.48048452221
89.1021,566.79246552304
89.1317,578.760174907504
89.1613,593.107671601617
89.1909,588.898082744703
89.2206,608.278506559028
89.2502,615.567440295997
89.2798,626.134925975774
89.3094,618.145644130509
89.339,625.022199798183
89.3686,676.3098923284
89.3982,728.363942145975
89.4278,734.692902791792
89.4574,759.391318977114
89.4871,842.558022199789
89.5167,911.924318869822
89.5463,900.938425302827
89.5759,945.303733602414
89.6055,915.426841574174
89.6351,855.553835800793
89.6647,813.080726538857
89.6943,811.678102926336
89.7239,774.73351278599
89.7536,785.570803901787
89.7832,765.308442650522
89.8128,793.434914228058
89.8424,766.979811574694
89.872,767.225361587628
89.9016,758.281533804236
89.9312,718.454239569316
89.9608,678.536831483352
89.9904,662.897073662966
