4.0001,491.939455095863
4.0297,474.018163471241
4.0593,429.227119784657
4.0889,453.764547595022
4.1185,466.820719811638
4.1482,477.840847913863
4.1778,422.073662966701
4.2074,452.257315842583
4.237,400.471736204576
4.2666,395.126471577531
4.2962,379.575849310461
4.3258,349.25126135217
4.3554,379.534320323014
4.385,377.195089135553
4.4147,360.846283215607
4.4443,372.300134589502
4.4739,367.349142280525
4.5035,355.750756811302
4.5331,349.399730820996
4.5627,335.06458123108
4.5923,312.732929700639
4.6219,338.617765814267
4.6515,360.241170534813
4.6812,356.508577194753
4.7108,354.177658142665
4.7404,324.98150016818
4.77,306.658257652203
4.7996,313.980827447023
4.8292,281.027590847914
4.8588,295.683148335015
4.8884,300.655903128153
4.918,308.049798115747
4.9477,313.401278170198
4.9773,270.205852674066
5.0069,274.461641991925
5.0365,277.73494786411
5.0661,266.779683821056
5.0957,264.140982503365
5.1253,267.418768920283
5.1549,275.652875882946
5.1845,260.921601615074
5.2142,259.690548267743
5.2438,247.386478304743
5.2734,248.347240915209
5.303,263.984863773966
5.3326,257.890682811975
5.3622,237.053817692566
5.3918,236.278600269179
5.4214,259.82946518668
5.451,256.890346451396
5.4807,268.773889636608
5.5103,243.792801883619
5.5399,233.793810965355
5.5695,230.607671601615
5.5991,233.172552976791
5.6287,234.788765556677
5.6583,238.138627187079
5.6879,224.953582240162
5.7175,245.831483350152
5.7471,239.106325706595
5.7768,228.832492431887
5.8064,233.132526067945
5.836,241.097544567777
5.8656,223.290040376851
5.8952,234.337033299697
5.9248,228.758829465187
5.9544,210.094212651413
5.984,221.302051799529
6.0136,217.423814328961
6.0433,216.207604306864
6.0729,213.342078708375
6.1025,219.999327278843
6.1321,228.78465679677
6.1617,222.374369323915
6.1913,234.003027245207
6.2209,225.083781965006
6.2505,209.821728893374
6.2801,223.541204170871
6.3098,216.982503364738
6.3394,224.932055163135
6.369,222.001009081735
6.3986,213.872855701312
6.4282,218.837146702557
6.4578,218.602758156744
6.4874,209.574167507568
6.517,212.038358008075
6.5466,215
6.5763,212.337369660276
6.6059,203.061911170929
6.6355,216.088462832156
6.6651,208.678102926337
6.6947,194.810228802153
6.7243,200.378069290279
6.7539,204.359905819038
6.7835,207.815612382234
6.8131,203.051463168516
6.8428,198.369323915237
6.8724,199.252606794484
6.902,209.954239569314
6.9316,207.967373023881
6.9612,202.386478304743
6.9908,208.093539703903
7.0204,212.605112680794
7.05,208.194080053818
7.0796,190.085800807537
7.1093,188.339724184325
7.1389,202.278506559031
7.1685,201.541386271871
7.1981,209.241170534813
7.2277,213.371678439287
7.2573,211.723082099596
7.2869,197.036326942483
7.3165,208.196098217289
7.3461,211.960632570659
7.3758,214.457114026236
7.4054,212.760511268079
7.435,209.071644803229
7.4646,204.687752355316
7.4942,207.327615203498
7.5238,220.852674066599
7.5534,214.835127860027
7.583,208.123107971746
7.6126,217.896064581231
7.6423,222.372139973082
7.6719,208.008745375042
7.7015,211.992600067272
7.7311,218.308209959623
7.7607,204.388496468214
7.7903,206.067272115708
7.8199,223
7.8495,218.117726202489
7.8791,218.742684157416
7.9088,230.567103935419
7.9384,227
7.968,220.251934073327
7.9976,217.776320215271
8.0272,223.473418573351
8.0568,222.123107971746
8.0864,224.183652875883
8.116,234.988223418574
8.1456,252.498150016818
8.1753,248.149007736294
8.2049,241.987550471063
8.2345,261.2351160444
8.2641,248.06458123108
8.2937,240.275908479138
8.3233,247.315169862092
8.3529,229.12209889001
8.3825,232.769179004038
8.4121,245.785401950891
8.4418,249.249915909856
8.4714,257.007063572149
8.501,253.706594885599
8.5306,254.107971745711
8.5602,261.518668012108
8.5898,265.042395693135
8.6194,256.164816683485
8.649,277.361251261352
8.6786,254.639300134589
8.7082,249.520013454423
8.7379,271.09451732257
8.7675,265.362045760431
8.7971,258.391187352842
8.8267,264.312815338042
8.8563,282.364064602961
8.8859,275.801883619239
8.9155,260.155734947864
8.9451,264.832492431887
8.9747,291.672611036339
9.0044,303.846619576186
9.034,306.594012781702
9.0636,316.538021534321
9.0932,291.666666666667
9.1228,291.55297679112
9.1524,303.804845222073
9.182,306.142616885302
9.2116,317.242515977128
9.2412,289.733512786003
9.2709,301.532795156408
9.3005,293.896064581232
9.3301,313.092530282638
9.3597,322.934073326607
9.3893,340.416750756811
9.4189,320.21467025572
9.4485,341.567103935418
9.4781,348.09653548604
9.5077,326.332660612175
9.5374,372.862718707941
9.567,377.56441305079
9.5966,373.428859737638
9.6262,387.528263795424
9.6558,346.741002354524
9.6854,358.985872855702
9.715,386.986541049798
9.7446,367.833501513623
9.7742,395.43760511268
9.8039,376.313593539704
9.8335,382.36629667003
9.8631,409.470568449378
9.8927,371.840511440107
9.9223,360.408678102927
9.9519,392.780356542213
9.9815,392.861083081063
10.0111,397.898721399731
10.0407,413.481331987892
10.0704,436.94248234107
10.1,401.798452220727
10.1296,402.382105617222
10.1592,418.232761520349
10.1888,455.525908479139
10.2184,428.491422805247
10.248,414.081735620585
10.2776,421.639636608345
10.3072,438.468886646486
10.3369,455.557349478641
10.3665,433.333781965007
10.3961,435.523713420787
10.4257,467.63605785402
10.4553,480.38795423957
10.4849,444.449041372351
10.5145,442.786074672048
10.5441,423.919273461149
10.5737,462.322341857335
10.6034,477.543558694921
10.633,484.41944164144
10.6626,498.732839838491
10.6922,446.801210898083
10.7218,476.725529767911
10.7514,448.660834454913
10.781,474.683148335015
10.8106,454.728557013118
10.8402,449.182368775234
10.8699,492.0736629667
10.8995,464.551967709385
10.9291,453.489232839838
10.9587,479.05751765893
10.9883,488.911200807265
11.0179,476.761856710394
11.0475,478.126850605653
11.0771,526.019172552978
11.1067,488.198789101917
11.1364,503.884589502019
11.166,488.123107971746
11.1956,489.142280524722
11.2252,476.426312247644
11.2548,502.048772283888
11.2844,502.866801210898
11.314,499.839838492598
11.3436,495.496131853347
11.3732,481.841910528086
11.4029,478.408479138629
11.4325,522.548267743021
11.4621,506.332996972755
11.4917,520.839502018842
11.5213,511.434577867474
11.5509,471.178943827784
11.5805,490.020181634712
11.6101,493.986541049798
11.6397,474.06729475101
11.6693,423.394550958629
11.699,471.571476622939
11.7286,521.360699865411
11.7582,511.188698284561
11.7878,482.62428523377
11.8174,520.00269179004
11.847,539.431214261689
11.8766,510.063572149344
11.9062,504.191790040377
11.9358,491.55533131517
11.9655,478.568449377733
11.9951,524.658815612381
12.0247,486.24184325597
12.0543,539.66599394551
12.0839,512.009081735621
12.1135,479.143001345895
12.1431,542.149680457451
12.1727,513.651866801211
12.2023,514.689098250337
12.232,486.439959636731
12.2616,479.415405314497
12.2912,484.477119784657
12.3208,515.88933736966
12.3504,536.178607467205
12.38,512.798115746972
12.4096,511.791456441305
12.4392,497.738311469896
12.4688,527.054845222073
12.4985,493.774974772957
12.5281,511.930373360243
12.5577,514.122139973082
12.5873,494.782374705684
12.6169,481.570131180626
12.6465,518.915237134209
12.6761,512.089502018843
12.7057,519.420114362596
12.7353,492.031954254961
12.765,513.389636608344
12.7946,477.346115035317
12.8242,494.434914228053
12.8538,508.223418573351
12.8834,504.160780356542
12.913,479.765556676757
12.9426,476.651413189771
12.9722,453.17961654894
13.0018,485.582912882611
13.0315,511.14199192463
13.0611,493.888664648502
13.0907,468.809956273126
13.1203,475.245206861756
13.1499,468.410497981158
13.1795,483.48604103599
13.2091,483.257315842583
13.2387,438.751345895022
13.2683,473.14026236125
13.298,491.467204843592
13.3276,499.21534320323
13.3572,506.408341742348
13.3868,443.467204843593
13.4164,473.668573351277
13.446,465.445005045409
13.4756,445.157080390179
13.5052,494.345558546433
13.5348,509.758829465187
13.5645,461.252943155064
13.5941,475.418909825034
13.6237,483.049445005046
13.6533,475.400605449041
13.6829,471.542213252607
13.7125,476.0733512786
13.7421,462.869828456105
13.7717,474.186680121089
13.8013,438.28129205922
13.831,464.375042045071
13.8606,464.332660612177
13.8902,464.728129205922
13.9198,473.586276488395
13.9494,449.63134880592
13.979,454.554508748318
14.0086,438.007399932727
14.0382,439.26034308779
14.0678,463.278600269178
14.0975,460.506559031282
14.1271,459.030272452069
14.1567,475.018842530282
14.1863,505.215607130844
14.2159,521.612512613522
14.2455,535.127480659267
14.2751,516.284656796769
14.3047,467.461823074336
14.3343,470.462159434913
14.364,456.078734858682
14.3936,474.109989909184
14.4232,499.955936764211
14.4528,525.986877523554
14.4824,555.846619576186
14.512,542.456104944501
14.5416,499.691117092866
14.5712,451.441641439622
14.6008,421.684493777329
14.6304,452.965343203231
14.6601,471.380760174907
14.6897,450.870837537841
14.7193,438.220988900101
14.7489,431.111709286675
14.7785,427
14.8081,427
14.8377,446.009421265142
14.8673,447.991927346115
14.8969,453.753447695931
14.9266,458.200538358008
14.9562,476.620585267408
14.9858,468.772956609484
15.0154,447.446164199192
15.045,464.58762193071
15.0746,479.545240497814
15.1042,459.440107671602
15.1338,453.810292633703
15.1634,428.857719475278
15.1931,421.923283983849
15.2227,428.759838546922
15.2523,425.937773292971
15.2819,431.369323915237
15.3115,442.405114401076
15.3411,442.733266061217
15.3707,430.505886310124
15.4003,436.518506056527
15.4299,464.883955600405
15.4596,463.176589303733
15.4892,428.154777927322
15.5188,462.413387151022
15.5484,472.239825092498
15.578,443.548452220727
15.6076,462.129162462159
15.6372,456.814665321225
15.6668,439.199865410498
15.6964,429.987554658594
15.7261,433.614194416414
15.7557,420.858728557014
15.7853,425.419919246296
15.8149,451.74402959973
15.8445,430.334006054491
15.8741,441.963660834457
15.9037,467.538849646821
15.9333,450.106962663977
15.9629,436.084118438762
15.9926,446.36629667003
16.0222,434.553313151698
16.0518,450.253701211305
16.0814,439.588294651867
16.111,429.368314833502
16.1406,441.620457604307
16.1702,452.018836192398
16.1998,440.602421796167
16.2294,406.176985195155
16.2591,413.872855701312
16.2887,434.614530776993
16.3183,436.157753111335
16.3479,422.627187079406
16.3775,468.959636730578
16.4071,526.019845274133
16.4367,586.08849259758
16.4663,761.855028590661
16.4959,1034.15438950555
16.5256,977.366083445486
16.5552,639.344096871846
16.5848,540.000672721158
16.6144,526.374158815612
16.644,527.642448705012
16.6736,516.289606458124
16.7032,498.338492597577
16.7328,508.431214261687
16.7624,511.377060208544
16.7921,474.745711402623
16.8217,502.312247644683
16.8513,519.738647830473
16.8809,508.57147662294
16.9105,550.254374158814
16.9401,565.798856374034
16.9697,554.122098890009
16.9993,578.629205921938
17.0289,582.64984863774
17.0586,602.970400269087
17.0882,571.176985195154
17.1178,593.389169189371
17.1474,613.681130171541
17.177,662.037685060566
17.2066,677.240834174234
17.2362,692.649512277161
17.2658,725.049798115746
17.2954,777.647830474267
17.3251,745.256306760848
17.3547,772.207534476962
17.3843,866.531965006729
17.4139,972.433232425153
17.4435,1122.11907164481
17.4731,1402.38391655449
17.5027,1857.66700302724
17.5323,1798.09821728895
17.5619,1299.65477792733
17.5915,1197.59334006054
17.6212,1212.12411705349
17.6508,1292.65477792732
17.6804,1206.4530776993
17.71,1185.74402959973
17.7396,1253.1699192463
17.7692,1335.63874873865
17.7988,1399.76387487387
17.8284,1404.37571476623
17.858,1480.01480484522
17.8877,1554.3541876892
17.9173,1684.22401614531
17.9469,1832.26514131897
17.9765,2085.9498822738
18.0061,2270.03834510595
18.0357,2638.24293405112
18.0653,3144.77194752779
18.0949,4137.06760847624
18.1245,5960.77792732173
18.1542,9974.98419105301
18.1838,19168.4184325597
18.2134,40673.6594885612
18.243,93904.8607467235
18.2726,189814.054490414
18.3022,197687.51009421
18.3318,126006.466868485
18.3614,51694.2008072643
18.391,17415.2906155396
18.4207,9373.08142664874
18.4503,6259.69963000331
18.4799,4644.93474604782
18.5095,3767.77624495291
18.5391,3236.03027245204
18.5687,2734.19845274133
18.5983,2440.48452220727
18.6279,2225.43928691559
18.6575,2013.70433905146
18.6872,1837.33479138627
18.7168,1742.61654894046
18.7464,1621.3087790111
18.776,1530.87617765815
18.8056,1434.31584258325
18.8352,1450.54187689204
18.8648,1326.78809283552
18.8944,1279.66487213997
18.924,1246.40060544904
18.9537,1180.54994954591
18.9833,1193.67563930014
19.0129,1153.63269424823
19.0425,1140.25967036663
19.0721,1109.29744279946
19.1017,1071.69458459468
19.1313,925.532795156407
19.1609,973.107671601615
19.1905,988.830474268419
19.2202,926.04877228389
19.2498,954.92196434578
19.2794,929.174966352625
19.309,918.12209889001
19.3386,846.129498822738
19.3682,909.71197846568
19.3978,860.241843255971
19.4274,793.893037336022
19.457,813.282206525396
19.4867,806.266487213998
19.5163,752.109653548602
19.5459,780.654557685838
19.5755,793.446837146703
19.6051,765.513622603429
19.6347,681.769929364281
19.6643,741.937079407806
19.6939,681.363269424827
19.7235,694.715438950555
19.7532,704.385262449529
19.7828,660.487386478303
19.8124,689.304069963001
19.842,694.756729475101
19.8716,711.462159434914
19.9012,717.550958627649
19.9308,791.371342078708
19.9604,775.554508748318
19.99,785.563740329633
20.0197,854.230070635719
20.0493,936.955585464332
20.0789,1130.70232088799
20.1085,1415.55129498824
20.1381,1877.45760430689
20.1677,2868.09889001008
20.1973,4888.97578203833
20.2269,8813.71063257088
20.2565,15711.1247897744
20.2862,18947.0464177598
20.3158,14975.4576043069
20.3454,10161.4029599729
20.375,5638.82744702327
20.4046,3763.80753701212
20.4342,3601.13555331315
20.4638,4352.56844937771
20.4934,6446.99697275482
20.523,8239.45995962326
20.5526,7048.64312142613
20.5823,5145.05819038006
20.6119,3117.80450874833
20.6415,1903.30676084759
20.6711,1358.96165489407
20.7007,1078.73048452222
20.7303,923.682811974443
20.7599,800.623276152033
20.7895,785.508748317631
20.8191,812.430877901109
20.8488,794.600403632695
20.8784,701.089838492591
20.908,694.909519004373
20.9376,607.083753784053
20.9672,586.159434914228
20.9968,565.79138627187
21.0264,523.970063908509
21.056,544.800201816345
21.0856,557.259084791386
21.1153,539.197443659603
21.1449,551.693239152372
21.1745,520.076043068642
21.2041,491.474268415742
21.2337,489.674739320552
21.2633,504.885598923284
21.2929,514.359233097881
21.3225,468.337033299701
21.3521,479.43943472409
21.3818,445.821392532795
21.4114,450.807938109655
21.441,447.953566621803
21.4706,424.687184661958
21.5002,409.300369996636
21.5298,432.432559704002
21.5594,440.542732166891
21.589,428.005045408678
21.6186,450.312478977462
21.6483,439.128869448184
21.6779,418.511268079382
21.7075,421.407332660612
21.7371,439.723418573351
21.7667,451.654894046417
21.7963,422.290615539861
21.8259,408.625841184387
21.8555,402.825765220316
21.8851,407.421796165489
21.9148,404.882570659488
21.9444,418.997981836528
21.974,411.76286579213
22.0036,401.365960309452
22.0332,416.117092866755
22.0628,414.989909182644
22.0924,410.242515977127
22.122,396.189771197846
22.1516,379.645812310797
22.1813,375
22.2109,366.49259757739
22.2405,375.482341069626
22.2701,382.0047090481
22.2997,375.835800807537
22.3293,370.046754120418
22.3589,378.552976791121
22.3885,356.895020188426
22.4181,349.868819374369
22.4478,366.345442314161
22.4774,359.546433378197
22.507,353.273797510932
22.5366,357.82038345106
22.5662,356.641775983855
22.5958,361.777254374159
22.6254,361.935755129499
22.655,369.03229061554
22.6846,381.713660834455
22.7143,363.408678102927
22.7439,387.387823747057
22.7735,376.068640646027
22.8031,355.634712411706
22.8327,374
22.8623,376.082099596231
22.8919,398.136226034308
22.9215,394.986545576858
22.9511,400.910161507406
22.9808,416.355196770938
23.0104,461.277497477292
23.04,532.438950554994
23.0696,547.518169582772
23.0992,553.835856037672
23.1288,539.187689202823
23.1584,488.055181695831
23.188,458.04608139926
23.2176,417.302724520683
23.2473,382.434724091522
23.2769,414.039354187688
23.3065,417.620585267408
23.3361,389.410497981157
23.3657,372.631012445343
23.3953,379.267406659941
23.4249,405.78465679677
23.4545,392.972754793138
23.4841,391.06659939455
23.5137,399.998654104979
23.5434,393.813992600068
23.573,413.138244197781
23.6026,417.033299697276
23.6322,421.811238223418
23.6618,422.784056508576
23.6914,400.012445341406
23.721,400.576716016152
23.7506,420.026236125126
23.7802,435.159771274808
23.8099,453.371130551818
23.8395,482.019508913556
23.8691,514.44466868483
23.8987,555.074024226115
23.9283,669.650857719474
23.9579,816.953918600729
23.9875,1038.38694481831
24.0171,1519.02522704337
24.0467,2591.63874873867
24.0764,4857.33703329951
24.106,9217.97981157471
24.1356,12649.1046081399
24.1652,11214.1661621259
24.1948,8302.00874831782
24.2244,5273.52068617571
24.254,2449.50319542542
24.2836,1332.77658142665
24.3132,949.160780356556
24.3429,783.362596703668
24.3725,645.742934051143
24.4021,583.607467204845
24.4317,543.992600067272
24.4613,518.759084791386
24.4909,497.02253615876
24.5205,447.965691220989
24.5501,434.594885598923
24.5797,431.893710057181
24.6094,424.922973427514
24.639,423.362260343087
24.6686,403.985531628533
24.6982,396.701311806254
24.7278,376.005718129833
24.7574,401.749663526244
24.787,387.131853346786
24.8166,385.954591321895
24.8462,419.741588156123
24.8759,393.169525731585
24.9055,386.011772620249
24.9351,393.475773889636
24.9647,402.598385469223
24.9943,382.275479313825
25.0239,357.46197846568
25.0535,357.819374369325
25.0831,390.178607467204
25.1127,367
25.1424,368.332436069986
25.172,378.231079717457
25.2016,396.786411032627
25.2312,393.488559892328
25.2608,386.872519340734
25.2904,405.229061553986
25.32,432.820995962315
25.3496,425.498822737975
25.3792,408.419105280859
25.4089,374.948855989232
25.4385,358.123444332323
25.4681,384.036326942483
25.4977,401.834454912518
25.5273,413.362260343088
25.5569,385.477295660949
25.5865,412.037685060567
25.6161,424.65691220989
25.6457,389.182643794146
25.6754,436.199125462496
25.705,417.215679676984
25.7346,425.260343087791
25.7642,405.772956609483
25.7938,459.595222072678
25.8234,451.112008072655
25.853,418.702993609149
25.8826,460.114401076719
25.9122,421.812310797175
25.9419,400.926337033301
25.9715,423.338156123822
26.0011,422.306088126473
26.0307,395.440968718466
26.0603,432.894683714673
26.0899,497.673057517657
26.1195,442.848974100238
26.1491,491.087117389842
26.1787,492.331090174966
26.2084,499.118735284225
26.238,535.787083753785
26.2676,568.369448183042
26.2972,715.741675075679
26.3268,770.219643457783
26.3564,845.172274562585
26.386,1083.76084762863
26.4156,1420.87823747055
26.4452,1891.21668909823
26.4748,2626.07433568784
26.5045,2902.90110998992
26.5341,2691.44347240916
26.5637,2494.82946518668
26.5933,2291.92230070636
26.6229,2243.80484522207
26.6525,1739.51463168517
26.6821,1670.31886982845
26.7117,1573.55264043054
26.7413,1541.64131897711
26.771,1858.47729566095
26.8006,2563.93306424487
26.8302,3432.12008072654
26.8598,4889.61103633922
26.8894,5072.33299697275
26.919,4266.29465186679
26.9486,3626.41318977114
26.9782,2582.4429868819
27.0078,1811.40766902124
27.0375,1451.51177658142
27.0671,1134.05449041374
27.0967,981.326606121768
27.1263,870.404441453563
27.1559,783.818365287585
27.1855,696.291960982168
27.2151,605.836192398251
27.2447,573.658815612381
27.2743,583.261352169527
27.304,610.248234106963
27.3336,545.730148048446
27.3632,569.79986545577
27.3928,544.260343087791
27.4224,539.238223418573
27.452,542.664984863774
27.4816,554.854355869492
27.5112,592.312247644684
27.5408,548.116380760176
27.5705,551.12209889001
27.6001,536.727456258411
27.6297,559.139253279517
27.6593,539.758156744029
27.6889,630.8734858681
27.7185,671.200470904808
27.7481,727.613521695256
27.7777,782.988563740332
27.8073,847.316958277252
27.837,1000.00067272117
27.8666,1217.92398250924
27.8962,1681.94481830419
27.9258,2259.83249243183
27.9554,3096.83215607135
27.985,3882.29071332433
28.0146,3627.19172552975
28.0442,3234.54793138246
28.0738,2696.10262449529
28.1035,2034.07265388493
28.1331,1477.7840565086
28.1627,1146.20895020187
28.1923,956.468886646483
28.2219,818.375378405653
28.2515,707.226707029943
28.2811,660.373485868103
28.3107,617.884964682137
28.3403,593.036326942482
28.37,592.987213997308
28.3996,577.344096871848
28.4292,551.703329969727
28.4588,611.126514131903
28.4884,626.65893037336
28.518,667.127144298687
28.5476,712.962314939434
28.5772,784.405987218291
28.6068,910.611503531795
28.6365,1127.75033647377
28.6661,1453.38748738649
28.6957,1736.49142280526
28.7253,1772.51278600269
28.7549,1628.08711738985
28.7845,1441.20955264043
28.8141,1145.96569122099
28.8437,865.351615074021
28.8733,661.735620585268
28.903,619.999327278844
28.9326,560.814939434731
28.9622,532.687184661958
28.9918,525.284561049444
29.0214,499.560228802152
29.051,465.289270097548
29.0806,502.010427177934
29.1102,552.690444145359
29.1398,580.558022199798
29.1695,595.998990918265
29.1991,615.137954239571
29.2287,634.992600067272
29.2583,636.243861419441
29.2879,724.460141271455
29.3175,810.268506056524
29.3471,1068.33333333335
29.3767,1524.10763538511
29.4063,1813.14939434724
29.4359,1748.45408678104
29.4656,1595.16750756813
29.4952,1292.10632570658
29.5248,970.615876219325
29.5544,741.341069626637
29.584,623.212651413183
29.6136,566.047426841571
29.6432,498.442314160779
29.6728,434.726783310902
29.7024,427.615876219306
29.7321,419.316851664986
29.7617,402.862718707941
29.7913,434.350151362262
29.8209,473.338042381433
29.8505,508.630339724187
29.8801,496.364737550468
29.9097,415.989909182638
29.9393,373.412041708712
29.9689,395.767496635259
29.9986,401.507568113016
30.0282,377.800874537503
30.0578,360.830753701211
30.0874,394.058526740663
30.117,396.540867810296
30.1466,373.630551816959
30.1762,357.623612512615
30.2058,345.89404641776
30.2354,344.451211305518
30.2651,350.027245206862
30.2947,341.954591321896
30.3243,361.1944164144
30.3539,362.390309555852
30.3835,329.322906155398
30.4131,346.899428187015
30.4427,362.600269179004
30.4723,344.158089471916
30.5019,340.13622603431
30.5316,359.870794078062
30.5612,364.337033299697
30.5908,380.210225361589
30.6204,372.499999999998
30.65,361.319206189036
30.6796,357.937436932394
30.7092,348.078061911168
30.7388,385.769593003703
30.7684,371.144635048774
30.7981,354.411843876178
30.8277,393.260679448368
30.8573,444.130171543889
30.8869,495.691557349479
30.9165,525.964670255724
30.9461,561.606121762529
30.9757,545.094853683144
31.0053,493.251682368777
31.0349,474.232425159771
31.0646,442.654221325264
31.0942,415.507402422611
31.1238,414.789101917256
31.1534,409.719475277498
31.183,391.143674293404
31.2126,372.693575512949
31.2422,369.316515304404
31.2718,369.945491251681
31.3014,402.365287588294
31.3311,397.146316851665
31.3607,377.271442986884
31.3903,382.333109017504
31.4199,417.102253615876
31.4495,392.503531786072
31.4791,381.111709286675
31.5087,387.122098890011
31.5383,390.731584258327
31.5679,422.096231493943
31.5976,444.435250588631
31.6272,484.835519677092
31.6568,535.28600269179
31.6864,584.152371342084
31.716,626.756138580557
31.7456,584.356662180344
31.7752,538.735620585268
31.8048,512.866128489742
31.8344,472.57065948856
31.8641,506.714766229398
31.8937,541.333333333335
31.9233,585.144298688196
31.9529,574.689098250337
31.9825,601.884964682139
32.0121,610.529431550622
32.0417,598.532974427998
32.0713,571.079717457117
32.1009,568.694248234114
32.1306,484.523216689101
32.1602,441.563740329632
32.1898,453.178271106626
32.2194,447.476446837147
32.249,454.857719475277
32.2786,442.158089471914
32.3082,429.46130551817
32.3378,448.63336696939
32.3674,440.915237134213
32.397,509.606794483686
32.4267,484.263795423958
32.4563,474.88496468214
32.4859,478.615876219306
32.5155,465.761776581429
32.5451,493.969727547932
32.5747,518.138244197775
32.6043,572.14939434724
32.6339,565.801210898082
32.6635,573.625630676085
32.6932,583.372139973084
32.7228,640.064581231077
32.7524,681.837537840566
32.782,734.014804845223
32.8116,767.179616548938
32.8412,875.443995963686
32.8708,998.522207267845
32.9004,1147.02556340396
32.93,1439.39858728556
32.9597,1973.88227379748
32.9893,2689.70558546443
33.0189,3875.6165489404
33.0485,6353.22973427529
33.0781,12152.6241588162
33.1077,24178.3037336025
33.1373,37317.2361251262
33.1669,34215.9175639295
33.1965,24602.1984527413
33.2262,22879.7564749408
33.2558,15885.163862719
33.2854,7601.89303733573
33.315,3820.64581231084
33.3446,2497.65982503363
33.3742,1814.06189034643
33.4038,1437.29027917929
33.4334,1172.12987886944
33.463,981.651866801202
33.4927,827.429868819372
33.5223,800.575176589304
33.5519,782.449528936749
33.5815,722.455432223343
33.6111,707.139253279517
33.6407,680.764468371467
33.6703,663.145980491088
33.6999,685.049781365625
33.7295,706.687752355318
33.7592,732.107635385137
33.7888,812.81735620585
33.8184,774.664872139976
33.848,734.568449377733
33.8776,716.077362933063
33.9072,699.602960969038
33.9368,633.808274470238
33.9664,570.068953918603
33.996,557.475613858057
34.0257,600.260430686405
34.0553,590.121426168846
34.0849,648.691220988897
34.1145,595.596567967694
34.1441,512.920282542885
34.1737,484.727211570804
34.2033,505.064939434717
34.2329,437.903128153377
34.2625,517.434914228052
34.2922,488.320995962316
34.3218,505.531113353518
34.3514,471.971745711403
34.381,468.808209959622
34.4106,431.015136226034
34.4402,445.949545913218
34.4698,438.061890346452
34.4994,462.705585464334
34.529,431.516649848638
34.5587,442.794147325933
34.5883,469.418768920281
34.6179,455.383580080755
34.6475,447.23948873192
34.6771,457.622603430877
34.7067,440.690444145357
34.7363,465.846619576186
34.7659,497.493104608141
34.7955,441.119784656802
34.8252,450.322233434242
34.8548,474.587285570129
34.8844,488.212651413189
34.914,529.208543558697
34.9436,533.861419441641
34.9732,531.220053835801
35.0028,547.601412714429
35.0324,576.537840565087
35.062,555.247561385804
35.0917,543.871467025571
35.1213,616.589303733597
35.1509,626.712411705348
35.1805,617.099259757738
35.2101,616.895728220653
35.2397,652.65422132526
35.2693,677.407469717362
35.2989,755.050454086784
35.3285,808.928691557347
35.3581,949.672274562581
35.3878,1155.93508240833
35.4174,1402.02724520686
35.447,1768.05349932704
35.4766,2319.23309788093
35.5062,3400.24487050114
35.5358,6122.30720053831
35.5654,12482.9478641101
35.595,23678.0746720483
35.6246,26611.059872183
35.6543,18044.0444145362
35.6839,15993.8025563404
35.7135,15132.858728557
35.7431,8780.67765814196
35.7727,4396.24217961617
35.8023,2503.10427177923
35.8319,1759.13189771201
35.8615,1340.49344096875
35.8911,1150.38546922301
35.9208,1047.27456258411
35.9504,976.253279515639
35.98,978.896400941808
36.0096,957.697173620461
36.0392,915.611503531784
36.0688,934.153380423814
36.0984,873.565422132524
36.128,841.623149394347
36.1576,858.769929364278
36.1873,920.313824419781
36.2169,1003.47947510095
36.2465,1128.09788092836
36.2761,1309.82677430204
36.3057,1612.70625841187
36.3353,2189.31046081404
36.3649,2918.95459132192
36.3945,3152.40511440108
36.4241,2939.84325597039
36.4538,2993.65422132527
36.4834,3075.08209959624
36.513,3255.89169189371
36.5426,3914.39959636731
36.5722,5071.96029609688
36.6018,5494.54187689203
36.6314,4783.11234443317
36.661,4181.08476286583
36.6906,3887.89300134587
36.7203,3052.07669021194
36.7499,2150.21661621257
36.7795,1608.29609690444
36.8091,1312.79381096535
36.8387,1140.27951564077
36.8683,1061.82772543741
36.8979,1087.03599058191
36.9275,1167.8197107299
36.9571,1239.18034993271
36.9868,1600.93777329297
37.0164,2704.40968718459
37.046,4722.10901749673
37.0756,5055.16784392869
37.1052,3627.53245879576
37.1348,3231.15842583248
37.1644,3250.04071332437
37.194,2294.38614194412
37.2236,1430.90817356201
37.2533,1121.97577388963
37.2829,975.519004372689
37.3125,900.456104944503
37.3421,923.540040376855
37.3717,941.499495459131
37.4013,977.441641439624
37.4309,1073.50706594885
37.4605,1255.83350151361
37.4901,1463.42650521358
37.5198,1763.07839838495
37.5494,2223.20787083749
37.579,3041.13252606795
37.6086,4238.05282637956
37.6382,5720.50655903126
37.6678,6298.50184998318
37.6974,5642.21089808285
37.727,4944.15477792732
37.7566,4517.47426841571
37.7863,3714.68920282543
37.8159,2769.06998654104
37.8455,2133.49108644465
37.8751,1760.51362260344
37.9047,1491.62180349932
37.9343,1211.63471241168
37.9639,1031.33837874202
37.9935,931.721399730815
38.0231,842.936764211235
38.0528,779.048435923314
38.0824,701.785329744277
38.112,690.421796165486
38.1416,685.792129162466
38.1712,648.964682139254
38.2008,659.545423956932
38.2304,676.979818365288
38.26,730.803565422131
38.2896,817.689434724089
38.3192,844.33669693912
38.3489,802.527749747732
38.3785,746.026244952893
38.4081,679.601412714428
38.4377,615.69290279179
38.4673,565.531965006737
38.4969,526.987554658593
38.5265,518.167507568113
38.5561,500.567294751012
38.5857,487.3965691221
38.6154,488.166834846957
38.645,471.66588156124
38.6746,463.522367978474
38.7042,456.665993945507
38.7338,485.155062226705
38.7634,501.831763122474
38.793,454.770265724856
38.8226,470.700302724522
38.8522,492.436069986543
38.8819,486.004036326937
38.9115,474.514295324586
38.9411,514.29205921938
38.9707,528.60847628658
39.0003,555.018163471246
39.0299,624.271197846565
39.0595,676.565758493104
39.0891,672.989236461486
39.1187,696.181695827727
39.1484,781.977463841235
39.178,960.24318869828
39.2076,1226.78876555669
39.2372,1660.25807537011
39.2668,2096.33467877563
39.2964,2195.91826437942
39.326,2040.467025572
39.3556,1890.86343760511
39.3852,1780.77934746049
39.4149,1586.96870794078
39.4445,1306.13488059198
39.4741,1100.80827447022
39.5037,977.702220726779
39.5333,855.871510258999
39.5629,777.832492431893
39.5925,714.281292059222
39.6221,674.133198789099
39.6517,638.882610158091
39.6814,627.936742934051
39.711,623.475277497472
39.7406,625.504204507231
39.7702,696.442986881935
39.7998,663.410497981156
39.8294,688.766565758495
39.859,717.80894719139
39.8886,751.452220726786
39.9182,835.270433905153
39.9479,941.994954591312
39.9775,1096.44818304172
40.0071,1365.31079717458
40.0367,1719.90380087454
40.0663,2238.60565275908
40.0959,2651.44096871847
40.1255,2528.37874201149
40.1551,2234.70659488561
40.1847,2253.01816347124
40.2144,2053.34207870836
40.244,1812.93844601415
40.2736,1502.19952893672
40.3032,1193.85031954256
40.3328,1085.99024554321
40.3624,982.374158815612
40.392,897.256306760848
40.4216,791.41708711739
40.4512,785.238896366082
40.4809,741.569122098883
40.5105,698.757147662298
40.5401,739.168909825034
40.5697,755.824419778006
40.5993,814.199125462498
40.6289,861.650067294752
40.6585,942.291624621602
40.6881,1102.50554994955
40.7177,1324.40746971742
40.7474,1867.91321897069
40.777,2923.19475277517
40.8066,5230.13387151025
40.8362,8121.73082099596
40.8658,7682.46417759843
40.8954,5043.23545240495
40.925,4782.00403768511
40.9546,5177.05381769262
40.9842,3570.26740665987
41.0139,2087.19919246293
41.0435,1416.51362260345
41.0731,1173.01849983181
41.1027,1089.97711978466
41.1323,1053.21560713085
41.1619,1109.56811301715
41.1915,1128.99865410497
41.2211,1170.52774974772
41.2507,1027.80154725866
41.2803,1020.40363269424
41.31,965.779609690443
41.3396,952.024217961654
41.3692,930.803901782711
41.3988,922.054508748315
41.4284,973.931046081406
41.458,1050.66700302725
41.4876,1135.77288021535
41.5172,1320.6004036327
41.5468,1489.60881264716
41.5765,1745.02624495291
41.6061,2196.03430877897
41.6357,2817.20484359233
41.6653,3135.74495289368
41.6949,3007.78540195092
41.7245,2570.56508577195
41.7541,2584.26716016151
41.7837,2553.98688193742
41.8133,2249.59872182978
41.843,2032.57887655567
41.8726,1805.18438761775
41.9022,1512.11806256307
41.9318,1454.66801210899
41.9614,1334.4993270525
41.991,1112.64749411369
42.0206,982.220316178941
42.0502,863.720484359227
42.0798,754.110363391658
42.1095,760.911200807266
42.1391,697.990245543217
42.1687,723.4730820996
42.1983,664.456777665664
42.2279,632.875882946519
42.2575,643.612382234185
42.2871,605.466532122434
42.3167,648.11234443323
42.3463,665.273461150351
42.376,605.904104979809
42.4056,652.376387487385
42.4352,597.344433232419
42.4648,575.177658142665
42.4944,555.26471577531
42.524,585.701311806256
42.5536,574.075033647377
42.5832,530.4968045745
42.6128,518.72351160444
42.6425,595.188425302832
42.6721,542.553313151696
42.7017,547.012108980828
42.7313,513.567294751011
42.7609,549.678439286913
42.7905,571.050790447358
42.8201,564.0666218035
42.8497,554.998990918264
42.8793,569.923309788094
42.909,593.206861755803
42.9386,575.770524899057
42.9682,580.001681802893
42.9978,593.191725529767
43.0274,588.06594885599
43.057,581.825428859738
43.0866,605.025563403967
43.1162,660.23822341857
43.1458,723.377396569126
43.1755,783.91826437942
43.2051,787.93270524899
43.2347,828.171207534471
43.2643,866.090817356207
43.2939,927.728129205922
43.3235,986.164480322904
43.3531,1047.03060881265
43.3827,1078.46754120417
43.4123,1098.47745625841
43.442,1180.11099899092
43.4716,1460.20787083756
43.5012,1424.57301480486
43.5308,1203.18398923645
43.5604,1023.37369660275
43.59,1015.35666218035
43.6196,1025.15237134208
43.6492,940.574503868154
43.6788,807.854643337824
43.7085,793.352169525733
43.7381,798
43.7677,815.714333781967
43.7973,872.314833501511
43.8269,878.861755802219
43.8565,943.408815612385
43.8861,1000.39623276152
43.9157,1119.8183652876
43.9453,1278.82038345105
43.975,1454.84925975771
44.0046,1715.40295997309
44.0342,2018.09889001008
44.0638,2531.91520861377
44.0934,3256.24722502525
44.123,4142.05886310135
44.1526,4655.18438761777
44.1822,4513.0363269425
44.2118,4086.8456104945
44.2414,3877.94885598923
44.2711,3608.93340060546
44.3007,2980.52539522368
44.3303,2386.60296096904
44.3599,2037.89640094179
44.3895,1685.31079717458
44.4191,1481.06256306761
44.4487,1287.58512786004
44.4783,1183.65186680121
44.5079,1104.00706357215
44.5376,1034.52220726783
44.5672,971.44601412715
44.5968,880.956945845944
44.6264,877.510094212649
44.656,884.21695257316
44.6856,906.208879919276
44.7152,904.264468371469
44.7448,886.048099562732
44.7744,849.882610158085
44.8041,847.856325706591
44.8337,841.879919273464
44.8633,790.457114026241
44.8929,771.836137281292
44.9225,775.382778338379
44.9521,775
44.9817,775
45.0113,773.791386271871
45.0409,828.806256306753
45.0706,845.0329633367
45.1002,876.211305518177
45.1298,892.233770602086
45.1594,957.043390514629
45.189,1054.23956931359
45.2186,1154.76622939791
45.2482,1265.79044735956
45.2778,1492.04172274565
45.3074,1758.96972754795
45.3371,2174.31886982847
45.3667,2789.20861372809
45.3963,3458.29835183311
45.4259,3923.18331651528
45.4555,3764.49041372355
45.4851,3368.32133243607
45.5147,3097.98654557686
45.5443,2864.22805247222
45.5739,2484.12853297441
45.6036,1996.37806929026
45.6332,1623.43491422803
45.6628,1348.38930013461
45.6924,1138.64513958965
45.722,1003.82980154725
45.7516,930.613055181696
45.7812,849.100908173562
45.8108,785.512613521695
45.8404,777.010094212652
45.8701,758.706020854357
45.8997,733.653884964682
45.9293,713.861709286673
45.9589,702.925327951564
45.9885,694.983854692231
46.0181,718.02623612512
46.0477,752.721399730822
46.0773,781.956609485363
46.1069,841.610830810623
46.1366,939.514131897713
46.1662,1055.46888664649
46.1958,1013.63269424824
46.2254,898.814939434727
46.255,862.182643794146
46.2846,831.121426168855
46.3142,800.732166890981
46.3438,726.770938446026
46.3734,633.556004036327
46.4031,609.336473755046
46.4327,568.997981836529
46.4623,506.214598049108
46.4919,519.348805919944
46.5215,548.032974427992
46.5511,508.752774974772
46.5807,515.921291624621
46.6103,529.209623149392
46.6399,513.847628657922
46.6696,515.612176252942
46.6992,512.076379542394
46.7288,518.152371342078
46.7584,516.025227043389
46.788,543.269515477792
46.8176,557.750084090143
46.8472,556.808274470232
46.8768,572.204912516823
46.9064,564.031954254962
46.9361,580.477295660952
46.9657,643.780619111703
46.9953,670.163807601751
47.0249,675.324924318868
47.0545,713.437605112678
47.0841,770.567967698506
47.1137,880.111671712076
47.1433,987.363269424838
47.1729,1083.21130551816
47.2025,1197.3686511941
47.2322,1401.05179952908
47.2618,1661.75841184386
47.2914,1952.78641103265
47.321,2249.3935418769
47.3506,2547.51413189773
47.3802,2649.90951900437
47.4098,2530.7931382442
47.4394,2371.04643337818
47.469,2214.66700302725
47.4987,2075.19576185669
47.5283,1869.43255970401
47.5579,1695.94952893673
47.5875,1412.58627648838
47.6171,1197.40968718466
47.6467,1002.41890982504
47.6763,944.573158425822
47.7059,848.276488395563
47.7355,795.848923283987
47.7652,760.437268752107
47.7948,693.03531786075
47.8244,669.584791386273
47.854,660.828456104943
47.8836,637.677430205174
47.9132,626.523553162858
47.9428,690.117053481329
47.9724,652.772283888328
48.002,617.527927321669
48.0317,598.379078372009
48.0613,546.384460141271
48.0909,539.180625630676
48.1205,524.323014804845
48.1501,537.767238479651
48.1797,520.376051126808
48.2093,521.265141318977
48.2389,520.873864783046
48.2685,532.422805247226
48.2982,523.954239569313
48.3278,517.978809283552
48.3574,514.658257652204
48.387,531.721399730817
48.4166,574.481331987892
48.4462,573.090480995634
48.4758,650.410497981155
48.5054,705.805583585605
48.535,679.457114026235
48.5647,667.354187689204
48.5943,646.547442799465
48.6239,613.15876219307
48.6535,578.976454759503
48.6831,556.816621803497
48.7127,500.007063572148
48.7423,517.72855701312
48.7719,535.50067294751
48.8015,507.315842583249
48.8312,508.331651530441
48.8608,492.900740242262
48.8904,487.313824419782
48.92,528
48.9496,528.087146702557
48.9792,529.581567440296
49.0088,537.810292633707
49.0384,561.528263795422
49.068,590.188025563407
49.0977,564.640766902138
49.1273,719.441977800199
49.1569,701.057873485866
49.1865,772.137235116055
49.2161,914.986209216266
49.2457,1052.08142664874
49.2753,1268.52304069965
49.3049,1630.03834510597
49.3345,2216.11574697192
49.3642,3630.93340060561
49.3938,6236.37167843952
49.4234,10512.3230148048
49.453,12389.1032626972
49.4826,8755.85973763878
49.5122,6054.71870794078
49.5418,6044.44769592992
49.5714,7335.50218634393
49.601,5856.00000000017
49.6307,3266.61553985894
49.6603,2017.32402422613
49.6899,1335.42314160783
49.7195,1110.06155398585
49.7491,924.31695827728
49.7787,786.063572149341
49.8083,765.478304742684
49.8379,685.510767160154
49.8675,668.524722502522
49.8972,658.359905819037
49.9268,643.600605652758
49.9564,643.955600403633
49.986,644.951227716112
50.0156,670.573687752359
50.0452,645.601076353853
50.0748,728.460141271444
50.1044,785.391318977121
50.134,779.699630003364
50.1636,770.669021190716
50.1933,854.143625967028
50.2229,873.888290713326
50.2525,1009.68819374369
50.2821,1122.30608812648
50.3117,1195.54643337819
50.3413,1375.46518668015
50.3709,1590.90110998993
50.4005,1856.44549125165
50.4301,2279.57248570469
50.4598,2903.6189034644
50.4894,3607.31763122481
50.519,3962.19206189034
50.5486,3781.53077699291
50.5782,3455.9892328398
50.6078,3303.57114026237
50.6374,3121.09081735618
50.667,2911.01614530779
50.6966,2494.24495289366
50.7263,2059.77295660943
50.7559,1684.08240834169
50.7855,1397.13257065949
50.8151,1264.91557349479
50.8447,1150.00807265389
50.8743,1060.99057873485
50.9039,954.966700302738
50.9335,873.318533467879
50.9631,837.842193808886
50.9928,812.507231752438
51.0224,759.079717457113
51.052,726.0965679677
51.0816,691.143625967035
51.1112,700.051126807939
51.1408,684.837146702558
51.1704,665.705348133198
51.2,643.045408678101
51.2296,583.021863437599
51.2593,568.78465679677
51.2889,602.555331315176
51.3185,593.37638748739
51.3481,609.612382234186
51.3777,590.670030272449
51.4073,562.393541876895
51.4369,558.277254374159
51.4665,579.379414732595
51.4961,583.74873864783
51.5258,596.493943472408
51.5554,609.944500504542
51.585,608.553985872855
51.6146,651.212651413187
51.6442,664.069626639757
51.6738,683.390178271104
51.7034,671.44952893674
51.733,710.067944836872
51.7626,700.813319878904
51.7923,710.71846619576
51.8219,768.720726783304
51.8515,854.659939455089
51.8811,923.397241843259
51.9107,999.590847913854
51.9403,1142.15741675077
51.9699,1278.04170871173
51.9995,1454.99899057876
52.0291,1710.88900100906
52.0588,2125.7763202153
52.0884,2561.27658142669
52.118,3202.96367305761
52.1476,3836.99999999994
52.1772,3954.47308209959
52.2068,3671.78641103261
52.2364,3314.83249243189
52.266,3105.96535486042
52.2956,3035.12180349933
52.3253,2770.01345442318
52.3549,2316.71375714767
52.3845,1876.72274562589
52.4141,1564.9202825429
52.4437,1356.20181634714
52.4733,1216.33781965007
52.5029,1132.77127480659
52.5325,1066.82643794147
52.5621,984.846567967684
52.5918,973.379414732593
52.6214,967.821056172214
52.651,966.018842530283
52.6806,944.761520349811
52.7102,909.599394550962
52.7398,850.183041722734
52.7694,800.818028927009
52.799,774.352169525735
52.8286,765.300706357215
52.8583,731.38963660834
52.8879,653.688193743689
52.9175,603.119071644802
52.9471,595.68472409152
52.9767,590.311806256307
53.0063,589.42381432896
53.0359,551.840847913873
53.0655,535.970736629664
53.0951,554.781365623949
53.1247,558
53.1544,550.507904473596
53.184,536.569122098891
53.2136,542.111372812922
53.2432,547.253952236797
53.2728,560.647830474271
53.3024,587.758829465184
53.332,577.132570659491
53.3616,552.947864110325
53.3912,571.038681466538
53.4209,558.999999999998
53.4505,564.65523040699
53.4801,608.457114026237
53.5097,611.487213997308
53.5393,627.456441305079
53.5689,656.923309788096
53.5985,688.079407806189
53.6281,708.410696266398
53.6577,721.646485031951
53.6874,761.970390309551
53.717,817.423141607802
53.7466,942.765556676753
53.7762,1077.44549125168
53.8058,1171.78910191726
53.8354,1330.42919609824
53.865,1569.79683821051
53.8946,1954.16689098255
53.9242,2563.49041372358
53.9539,3739.40565085787
53.9835,6110.51211305531
54.0131,10152.2912882609
54.0427,14037.9286915576
54.0723,13687.1991924627
54.1019,9608.96367305746
54.1315,7140.31853346782
54.1611,7620.9246298791
54.1907,8832.95358224018
54.2204,7944.10258997671
54.25,5577.98990578716
54.2796,4058.06357214927
54.3092,3439.24621594349
54.3388,3331.48099562734
54.3684,3528.76917900402
54.398,3740.63168516647
54.4276,3757.9374369324
54.4572,3434.40646029608
54.4869,3095.0938446014
54.5165,2968.64648503194
54.5461,2894.19246298789
54.5757,2737.95257315848
54.6053,2343.73360242175
54.6349,1981.68640646027
54.6645,1763.05280861086
54.6941,1517.94550958629
54.7237,1346.4925975774
54.7534,1215.08173562058
54.783,1113.64883955599
54.8126,1004.49259757739
54.8422,934.589303733602
54.8718,862.994954591315
54.9014,805.560713084421
54.931,753.967362045747
54.9606,706.784729229733
54.9902,712.247225025223
55.0199,697.008748317638
55.0495,712.577194752775
55.0791,668.534140598718
55.1087,631.769179004036
55.1383,650.457114026231
55.1679,684.489404641775
55.1975,710.112045760424
55.2271,769.040363269427
55.2567,820.503531786078
55.2864,893.734858681002
55.316,1020.27413387151
55.3456,1092.85671039354
55.3752,1217.13050790448
55.4048,1223.05383580081
55.4344,1258.35687857384
55.464,1159.94853683148
55.4936,1067.53701211306
55.5232,1025.57282206525
55.5529,989.105280861069
55.5825,877.079407806195
55.6121,814.579885637408
55.6417,742.519677093834
55.6713,682.543741588154
55.7009,663.412378069291
55.7305,655.253279515642
55.7601,656.919246298787
55.7897,698.527749747729
55.8194,733.943491422797
55.849,818.212651413193
55.8786,784.784729229735
55.9082,710.031281533804
55.9378,711.984863773965
55.9674,703.364401076718
55.997,752.864446686851
56.0266,832.871173898417
56.0562,789.166554508748
56.0858,838.924318869823
56.1155,936.898082744701
56.1451,994.655787348586
56.1747,937.792465523035
56.2043,819.554322233433
56.2339,792.128532974426
56.2635,760.241170534813
56.2931,767.323578876557
56.3227,744.959286675652
56.3523,660.874537504199
56.382,603.00706357215
56.4116,590.126135216952
56.4412,547.170928667564
56.4708,530.609821728893
56.5004,520.384796501848
56.53,456.532974427995
56.5596,466.3229061554
56.5892,508.819710729898
56.6188,460.315612382234
56.6485,452.602758156743
56.6781,460.141944164144
56.7077,461.00067294751
56.7373,447
56.7669,448.338378742011
56.7965,467.039030955591
56.8261,415.448032290617
56.8557,422.002018163475
56.8853,381.641991924636
56.915,419.1927346115
56.9446,402.051463168513
56.9742,456.241170534813
57.0038,433.490578734858
57.0334,451.580221997982
57.063,476.131853346788
57.0926,482.334454912522
57.1222,437.552640430537
57.1518,490.211907164484
57.1815,525.070659488559
57.2111,539.05751765893
57.2407,595.808274470232
57.2703,606.91490077363
57.2999,728.551480484523
57.3295,791.982845610492
57.3591,945.799192734594
57.3887,1135.30854643336
57.4183,1457.54086781023
57.448,1524.23377060208
57.4776,1475.78405650858
57.5072,1679.79138627188
57.5368,2304.48974100227
57.5664,3284.90951900447
57.596,3267.47779273216
57.6256,2447.95156407668
57.6552,1889.51059535824
57.6848,1718.4616419919
57.7145,2051.24016145306
57.7441,2246.25058863101
57.7737,1856.83445491246
57.8033,1466.225025227
57.8329,1305.65422132526
57.8625,1322.32974427994
57.8921,1242.23377060208
57.9217,1177.88092835519
57.9513,1140.46231493943
57.981,1134.29969727548
58.0106,1123.25126135217
58.0402,1126.45677766566
58.0698,1175.80047106326
58.0994,1050.44096871846
58.129,960.956945845934
58.1586,839.064602960969
58.1882,806.466868483016
58.2178,801.402623612513
58.2475,780.238223418574
58.2771,696.089808274462
58.3067,702.696602758159
58.3363,676.169919246301
58.3659,644.713084426505
58.3955,631.564076690211
58.4251,685.407133243606
58.4547,740.264715775316
58.4843,803.833501513629
58.514,864.788092835518
58.5436,893.165545087486
58.5732,1011.9949545913
58.6028,1015.75748402287
58.6324,883.37146702559
58.662,816.803901782709
58.6916,765.375378405644
58.7212,771.802826379543
58.7508,760.879246552307
58.7805,691.824756138573
58.8101,645.743606998653
58.8397,560.931718802543
58.8693,536.08980827447
58.8989,464.208613728126
58.9285,499.701311806244
58.9581,512.922973427514
58.9877,502.818304172275
59.0173,509.891019172554
59.0469,532.668348469561
59.0766,550.33198789102
59.1062,593.821332436075
59.1358,545.741338715099
59.1654,522.77194752775
59.195,513.137281292061
59.2246,521.748402287251
59.2542,547.167171207536
59.2838,520.888627187079
59.3134,570.048435923314
59.3431,594.720484359233
59.3727,620.78869448183
59.4023,626.727547931382
59.4319,684.447023208868
59.4615,709.703566621803
59.4911,717.692230070635
59.5207,705.016818028926
59.5503,700.071644803229
59.5799,679.721399730818
59.6096,620.643794147335
59.6392,568.030272452069
59.6688,562.800807537012
59.6984,527.982172889337
59.728,486.276152034981
59.7576,456.402422611039
59.7872,431.161453077697
59.8168,438.078035654219
59.8464,444.697173620458
59.8761,424.484359233097
59.9057,452.768920282546
59.9353,482.34589502019
59.9649,478.70938446014
59.9945,478.433568785738
60.0241,485.404441453567
60.0537,465.501513622597
60.0833,458.826437941472
60.1129,477.172889337372
60.1426,520.462987886948
60.1722,568.891355533127
60.2018,597.529095190044
60.2314,609.820995962315
60.261,589.064581231082
60.2906,558.743693239154
60.3202,547.230484522208
60.3498,568.838546922297
60.3794,599.530776992938
60.4091,580.398721399734
60.4387,575.133198789103
60.4683,558.409350824089
60.4979,534.729475100942
60.5275,522.295324587956
60.5571,514.559031281534
60.5867,512.226707029937
60.6163,511.100942126514
60.6459,497.797510931721
60.6756,465.826101580896
60.7052,456.574697173622
60.7348,453.873864783047
60.7644,453.454423141609
60.794,490.111036339164
60.8236,479.268415741667
60.8532,459.031281533807
60.8828,462.721399730824
60.9124,475.473259334005
60.9421,508.756474941134
60.9717,518.469717362046
61.0013,540.088799192739
61.0309,564.994954591322
61.0605,571.425975773889
61.0901,572.598385469221
61.1197,564.607130844265
61.1493,547.070635721494
61.1789,541.998317631226
61.2086,550.623612512613
61.2382,546.587285570131
61.2678,568.801144010762
61.2974,614.962327615196
61.327,655.32492431887
61.3566,652.943135935399
61.3862,618.153716784394
61.4158,600.757147662292
61.4454,604.762449528939
61.4751,651.096871846625
61.5047,667.742684157421
61.5343,642.38795423957
61.5639,627.732256979484
61.5935,618.423141607804
61.6231,589.686175580209
61.6527,553.145356662181
61.6823,581.159434914224
61.7119,586.20484359234
61.7416,549.835800807537
61.7712,564.82542885974
61.8008,582.586276488396
61.8304,561.852624495284
61.86,552.006727211578
61.8896,606.816347124121
61.9192,656.327052489901
61.9488,702.501513622604
61.9784,721.695257315839
62.008,732.028936742928
62.0377,721.493777329296
62.0673,760.977463841238
62.0969,787.296096904445
62.1265,852.020181634718
62.1561,920.254624957961
62.1857,955.677430205183
62.2153,1015.12012113055
62.2449,1169.96569122096
62.2745,1481.54456777668
62.3042,2046.37281292061
62.3338,3062.54591321879
62.3634,4995.78641103293
62.393,7696.93707940779
62.4226,9155.46316851667
62.4522,7458.82004709083
62.4818,4900.32907133225
62.5114,3917.28624285233
62.541,4083.42684157409
62.5707,5017.82133243604
62.6003,5106.97275479334
62.6299,3769.90110998977
62.6595,2509.31180625629
62.6891,1654.35127860024
62.7187,1238.42482341068
62.7483,990.626976118404
62.7779,926.798788694464
62.8075,798.08375378406
62.8372,741.401950891349
62.8668,686.667563930015
62.8964,660.361251261349
62.926,693.28153380424
62.9556,672.255720053836
62.9852,639.605112680795
63.0148,626.827447023208
63.0444,612.077388963659
63.074,616.732929700641
63.1037,602.229061553984
63.1333,571.029609690442
63.1629,546.693911873525
63.1925,567.87790110999
63.2221,602.630676084765
63.2517,608.273553162856
63.2813,549.201479986544
63.3109,565.047426841578
63.3405,592.468371467025
63.3702,602.401614530779
63.3998,668.08678102926
63.4294,659.555518169578
63.459,700.31315169862
63.4886,716.38042381433
63.5182,757.062920592204
63.5478,841.569794820039
63.5774,916.705348133179
63.607,1053.78196500675
63.6367,1212.67978472925
63.6663,1421.23007063568
63.6959,1735.46350487713
63.7255,2253.05114401073
63.7551,2741.96098217281
63.7847,3229.3370332997
63.8143,3153.62247644684
63.8439,3088.65657584933
63.8735,3380.6976118397
63.9032,4492.02422611012
63.9328,6578.32761520334
63.9624,9343.2966700303
63.992,9990.78196500654
64.0216,7171.93575512983
64.0512,4640.47595021875
64.0808,3769.54576043067
64.1104,4145.47931382431
64.14,4843.35788765557
64.1697,5177.24697173634
64.1993,3833.34275142958
64.2289,2344.38143289615
64.2585,1603.84460141275
64.2881,1257.91016150741
64.3177,1080.15102589975
64.3473,892.161789438279
64.3769,879.055518169583
64.4065,876.551967709377
64.4362,813.655903128153
64.4658,831.070659488549
64.4954,938.144298688196
64.525,991.784392869161
64.5546,1120.9619784657
64.5842,1325.54591321896
64.6138,1415.92398250924
64.6434,1644.67496635262
64.673,1483.87386478306
64.7027,1353.2092162799
64.7323,1112.23309788093
64.7619,1132.79811574697
64.7915,1103.18836192397
64.8211,1172.8822737975
64.8507,1052.73259334003
64.8803,887.675639300135
64.9099,783.504204507222
64.9395,688.789438277841
64.9691,680.160161507402
64.9988,594.10158089473
65.0284,579.367305751766
65.058,520.938088829067
65.0876,564.27682475614
65.1172,536.27211570804
65.1468,508.262449528938
65.1764,530.763874873864
65.206,535.784729229734
65.2356,530.347240915209
65.2653,497.060208543558
65.2949,475.327951564077
65.3245,488.918264379418
65.3541,483.501682368776
65.3837,454.356542213247
65.4133,486.945173225691
65.4429,513.804172274559
65.4725,471.35116044399
65.5021,511.43457786748
65.5318,493.346904441455
65.5614,497.312478977463
65.591,506.076690211907
65.6206,512.3600269179
65.6502,564.562058526737
65.6798,528.53784056508
65.7094,547.655450874832
65.739,585.172552976786
65.7686,590.871846619576
65.7983,629.316851664978
65.8279,631.532974427994
65.8575,662.047426841574
65.8871,683.303060881262
65.9167,756.025572005395
65.9463,838.520686175583
65.9759,968.493104608133
66.0055,1027.01211305518
66.0351,1240.7056844938
66.0648,1427.27480659265
66.0944,1686.398384926
66.124,1799.19576185671
66.1536,1803.94618230743
66.1832,1670.14468371466
66.2128,1460.95896400941
66.2424,1450.79112008073
66.272,1434.62045760431
66.3016,1424.18869828456
66.3313,1470.25159771275
66.3609,1341.81567440295
66.3905,1222.79845222072
66.4201,1152.92633703329
66.4497,1151.75580221998
66.4793,1192.42126514132
66.5089,1201.44937773293
66.5385,1365.98082744703
66.5681,1524.65578734856
66.5978,1696.6266397578
66.6274,1836.47460477632
66.657,1831.40208613728
66.6866,1689.71173898422
66.7162,1545.17154389505
66.7458,1528.12617765814
66.7754,1457.74604776321
66.805,1459.702320888
66.8346,1366.84661957617
66.8643,1213.53028263793
66.8939,1103.43188698285
66.9235,967.508577194731
66.9531,891.970390309557
66.9827,808.338042381437
67.0123,754.462159434917
67.0419,675.59084791387
67.0715,609.147325933405
67.1011,605.538849646818
67.1308,583.166890982507
67.1604,566.850655903128
67.19,578.056508577197
67.2196,549.847913862717
67.2492,512.279179280192
67.2788,507.395223679784
67.3084,521.394347240917
67.338,499.694248234112
67.3676,495.262697611839
67.3973,521.800201816345
67.4269,506.085127860028
67.4565,475.042717793475
67.4861,517.178607467197
67.5157,535.988559892328
67.5453,524.605785401951
67.5749,521
67.6045,551.91352624496
67.6341,577.519677093844
67.6638,625.794147325938
67.6934,620.926648721394
67.723,682.856037672404
67.7526,747.708375378407
67.7822,816.650740242273
67.8118,815.7114026236
67.8414,797.20080726539
67.871,751.961654894033
67.9006,712.084791386272
67.9302,698.603430877904
67.9599,697.862764883954
67.9895,690.358008075373
68.0191,660.041035990586
68.0487,603.855364951231
68.0783,619.545087483178
68.1079,599.186680121077
68.1375,549.150016818028
68.1671,547.452220726783
68.1967,522.832492431889
68.2264,506.615539858727
68.256,504.340511440108
68.2856,487.14228052472
68.3152,487.154725866127
68.3448,481.107671601613
68.3744,480.132189707363
68.404,476.330978809284
68.4336,487.461150353178
68.4632,512.620121130552
68.4929,522.195761856709
68.5225,531.071644803228
68.5521,531.461305518169
68.5817,569.78607467204
68.6113,615.989909182644
68.6409,615.070659488562
68.6705,672.288261015785
68.7001,758.941473259339
68.7297,839.788694481852
68.7594,931.917255297691
68.789,1041.65220316178
68.8186,1214.0942126514
68.8482,1333.36461486714
68.8778,1302.51362260345
68.9074,1231.32156071308
68.937,1181.44145356663
68.9666,1125.6458123108
68.9962,1181.6659939455
69.0259,1195.4448183042
69.0555,1127.53582240161
69.0851,1098.30440632358
69.1147,995.627187079388
69.1443,898.686175580218
69.1739,855.582240161452
69.2035,792.464333781963
69.2331,704.68684830139
69.2627,651.407332660611
69.2924,636.243606998652
69.322,614.976118398929
69.3516,624.586276488403
69.3812,659.430686406458
69.4108,654.307433568787
69.4404,701.424823410685
69.47,764.625630676084
69.4996,839.09555854646
69.5292,1038.11738984189
69.5589,1248.2963336697
69.5885,1296.83209959623
69.6181,1118.76589303737
69.6477,923.770938446011
69.6773,820.355652759087
69.7069,787.323578876554
69.7365,863.614867137573
69.7661,965.926648721398
69.7957,939.557013118076
69.8254,792.800201816323
69.855,683.97173620458
69.8846,597.368987554662
69.9142,556.419105280864
69.9438,530.7477295661
69.9734,492.689098250333
70.003,483.518668012111
70.0326,493.599394550957
70.0622,476.841184387617
70.0919,469.368651194082
70.1215,452.654894046417
70.1511,478.569313593541
70.1807,474.681130171544
70.2103,445.288933736966
70.2399,435.467698519519
70.2695,416.574167507569
70.2991,433.790783720148
70.3287,436.699865410492
70.3584,450.511268079381
70.388,434.869155734952
70.4176,458.850605652758
70.4472,466.274470232088
70.4768,515.28557013118
70.5064,524.495795492767
70.536,531.018842530283
70.5656,550.428859737626
70.5952,636.155062226698
70.6249,701.510767160171
70.6545,764.733602421797
70.6841,798.819038008746
70.7137,797.192126514132
70.7433,754.89101917255
70.7729,701.858392196434
70.8025,703.107335127861
70.8321,698.061890346453
70.8617,700.550958627651
70.8913,689.073014804851
70.921,724.8839556004
70.9506,689.570131180635
70.9802,639.721063257063
71.0098,681.952236797847
71.0394,672.441977800195
71.069,710.474268415742
71.0986,716.888290713328
71.1282,754.994954591325
71.1578,720.089808274484
71.1875,673.522207267838
71.2171,702.352169525725
71.2467,735.591321897077
71.2763,749.697173620452
71.3059,691.363942145986
71.3355,723.249243188704
71.3651,691.398384925975
71.3947,717.483013790781
71.4243,747.637403296333
71.454,764.904441453562
71.4836,863.060208543549
71.5132,934.847628657917
71.5428,1001.57551294987
71.5724,1123.10935397039
71.602,1119.89404641776
71.6316,1084.49545913219
71.6612,1071.88829071332
71.6908,998.774974772964
71.7205,1023.71274806593
71.7501,1013.81056527589
71.7797,1159.04978136561
71.8093,1303.35317860753
71.8389,1594.96736204577
71.8685,2027.19206189036
71.8981,2849.81971072995
71.9277,3388.63122476447
71.9573,2956.67608476291
71.987,2181.45105953592
72.0166,1626.68270524895
72.0462,1423.59737638749
72.0758,1486.36898755468
72.1054,1746.68819374373
72.135,2024.44145356667
72.1646,1804.5502859065
72.1942,1441.08409014464
72.2238,1260.08950201884
72.2535,1215.73763874873
72.2831,1020.38748738648
72.3127,925.340511440106
72.3423,719.134207870842
72.3719,620.838210561727
72.4015,584.000000000004
72.4311,650.729475100936
72.4607,632.15977127481
72.4903,696.169189370992
72.52,599.33243606998
72.5496,592.106962663976
72.5792,517.687184661946
72.6088,521.840565085772
72.6384,483.224764468365
72.668,505.160443995965
72.6976,509.842583249242
72.7272,454.517496635272
72.7568,440.573158425834
72.7865,464.731920618903
72.8161,401.592193808895
72.8457,440.426841574163
72.8753,439.246215943492
72.9049,405.362045760428
72.9345,400.209889001009
72.9641,383.338042381434
72.9937,378.313593539704
73.0233,353.234106962668
73.053,365.659939455094
73.0826,371.560901749664
73.1122,356.566767574838
73.1418,368.551967709385
73.1714,325.045408678105
73.201,339.690444145356
73.2306,337.546585940127
73.2602,335.227379751093
73.2898,322.648721399731
73.3195,313.949882273796
73.3491,321.768920282544
73.3787,329.109690444146
73.4083,336.947864110326
73.4379,331.087117389842
73.4675,336.020188425302
73.4971,330.154389505548
73.5267,333.256643121427
73.5563,330.611036339166
73.586,331.692566431214
73.6156,347.99630003364
73.6452,340.949545913218
73.6748,368.170592193804
73.7044,327.568785738322
73.734,323.773292970063
73.7636,321.717362045761
73.7932,312.020181634711
73.8228,302.692230070634
73.8524,300.192126514132
73.8821,319.366296670032
73.9117,323.197443659603
73.9413,348.550471063253
73.9709,335.146316851669
74.0005,330.789774638412
74.0301,345.927658142666
74.0597,343.74907500841
74.0893,356.762865792127
74.1189,334.722072678337
74.1486,313.876892028253
74.1782,347.611167171211
74.2078,394.107299024551
74.2374,408.036339165546
74.267,400.697275479314
74.2966,382.99159098554
74.3262,411.583445491252
74.3558,410.385805583582
74.3854,402.311806256308
74.4151,375.209286675636
74.4447,373.325933400607
74.4743,378.184661957618
74.5039,402.89502018843
74.5335,408.400941809619
74.5631,381.959636730574
74.5927,382.669582772542
74.6223,396.191389169189
74.6519,398.594685502859
74.6816,392.386814665322
74.7112,393.487550471064
74.7408,388.067608476286
74.7704,377.422468886648
74.8,402.75841184388
74.8296,440.496468213919
74.8592,409.406659939465
74.8888,397.063257065949
74.9184,401
74.9481,380.333333333333
74.9777,373.312584118439
75.0073,383.55734947864
75.0369,408.270433905139
75.0665,441.740578734858
75.0961,433.990245543222
75.1257,462.107299024558
75.1553,468.713324360699
75.1849,456.83652875883
75.2146,463.21190716448
75.2442,496.85637403297
75.2738,535.810228802148
75.3034,613.984863773974
75.333,780.593340060523
75.3626,1052.87483176311
75.3922,1549.37100571805
75.4218,1997.79818365283
75.4514,1936.79946164198
75.4811,1525.93609149016
75.5107,1147.2694248234
75.5403,918.366083445485
75.5699,863.430205179955
75.5995,1003.39858728562
75.6291,1243.56864064603
75.6587,1292.74369323916
75.6883,1141.31416078034
75.7179,922.90043726881
75.7476,741.748990578758
75.7772,670.738311469897
75.8068,624.503531786072
75.8364,613.658815612386
75.866,593.058526740675
75.8956,577.585267406655
75.9252,564.807873485872
75.9548,570.652875882933
75.9844,589.725866128489
76.0141,603.956931359352
76.0437,608.98553649512
76.0733,629.07971745711
76.1029,689.855316285321
76.1325,729.17255297679
76.1621,744.062563067607
76.1917,727.955585464327
76.2213,702.522367978473
76.2509,661.575176589314
76.2806,633.319878910194
76.3102,615.254374158807
76.3398,604.803565422134
76.3694,625.521358896737
76.399,625
76.4286,588.321897073675
76.4582,540.477968382108
76.4878,529.306864064605
76.5174,499.840228725196
76.5471,465.43558694921
76.5767,454.573351278602
76.6063,448
76.6359,454.211234443326
76.6655,456.726783310901
76.6951,436.507231752433
76.7247,418.13824419778
76.7543,405.484359233093
76.7839,379.02086137281
76.8135,387.413387151029
76.8432,405.401950891352
76.8728,380.045760430685
76.9024,369.321897073664
76.932,369.255970400269
76.9616,364.597913862724
76.9912,369.357887655553
77.0208,384.640766902111
77.0504,369.265814266488
77.08,401.896064581232
77.1097,411.471577531114
77.1393,405.221399730822
77.1689,396.384123780691
77.1985,418.221997981849
77.2281,471.761776581425
77.2577,493.857383114697
77.2873,507.782711066263
77.3169,516.634712411705
77.3465,521.781292059221
77.3762,515.124117053482
77.4058,516.544231416076
77.4354,519.508748317636
77.465,536.650521358896
77.4946,525.010090817356
77.5242,515.508748317631
77.5538,523.152371342072
77.5834,576.123444332323
77.613,602.210632570655
77.6427,691.815674402981
77.6723,872.786074672059
77.7019,1023
77.7315,999.350487722827
77.7611,901.816683484669
77.7907,771.357214934391
77.8203,689.264468371466
77.8499,654.276152034985
77.8795,644.781365623956
77.9092,702.076716016146
77.9388,723.361923982505
77.9684,692.263370333002
77.998,634.737886944821
78.0276,546.379751093179
78.0572,519.511268079381
78.0868,506.421938088829
78.1164,458.797174571141
78.146,438.228725193409
78.1757,403.839165545087
78.2053,378.420787083756
78.2349,412.30575176589
78.2645,451.188088829074
78.2941,435
78.3237,440.075008409018
78.3533,455.837201479985
78.3829,463.474427994617
78.4125,533.056508577185
78.4422,584.378405650858
78.4718,617.963660834455
78.5014,677.136562394894
78.531,722.809283551971
78.5606,783.970390309556
78.5902,825.241170534809
78.6198,861.8950554995
78.6494,892.67227456259
78.679,939.742684157411
78.7087,983.344096871855
78.7383,1031.80013458951
78.7679,1007.53884964682
78.7975,1042.59098553649
78.8271,1054.86814665321
78.8567,1096.0037012113
78.8863,1243.23814328956
78.9159,1480.47325933406
78.9455,1703.55955585465
78.9752,1649.96569122096
79.0048,1412.74806592664
79.0344,1157.51446837146
79.064,986.283551967702
79.0936,949.168180289266
79.1232,932.656460296091
79.1528,1038.36629667004
79.1824,1155.84359233095
79.212,1029.99057873485
79.2417,878.483350151334
79.2713,766.270097544582
79.3009,657.772880215324
79.3305,560.601749075023
79.3601,490.340060544915
79.3897,543.417759838537
79.4193,493.433378196505
79.4489,521.48839556004
79.4785,497.740665993941
79.5082,441.598250336471
79.5378,475.622603430883
79.5674,438.836192398249
79.597,418.600269179005
79.6266,394.448032290615
79.6562,404.135216952579
79.6858,427.958950201884
79.7154,428.368987554652
79.745,464.293642785067
79.7746,473.197846567969
79.8043,480.05516313488
79.8339,481.72149344097
79.8635,471.054826774308
79.8931,526.014468371467
79.9227,527.17726202489
79.9523,543.854692230071
79.9819,519.976446837147
80.0115,506.032974427995
80.0411,500.040363269423
80.0708,549.613185334685
80.1004,588.540713324355
80.13,654.918264379409
80.1596,619.75916582577
80.1892,636.557873485867
80.2188,598.157080390181
80.2484,597
80.278,650.908479138633
80.3076,630.001009081736
80.3373,658.675748402288
80.3669,703.848586810231
80.3965,769.57450386815
80.4261,831.55903128152
80.4557,864.143962327608
80.4853,937.141318977129
80.5149,1053.80625630674
80.5445,1214.08476286579
80.5741,1300.78600269179
80.6038,1329.13521695257
80.6334,1405.35216952572
80.663,1587.46164199191
80.6926,1697.6804574504
80.7222,1567.60746720482
80.7518,1334.0383580081
80.7814,1197.9078372015
80.811,1072.56205852676
80.8406,1012.80888290712
80.8703,1014.9858728557
80.8999,1126.36831483353
80.9295,1112.00706357215
80.9591,1054.65578734857
80.9887,894.721157080401
81.0183,792.347124117041
81.0479,646.435060565293
81.0775,640.43289606458
81.1071,643
81.1368,538.168573351257
81.1664,556.46249579549
81.196,518.289606458137
81.2256,520.074024226111
81.2552,544.549949545908
81.2848,559.800538176923
81.3144,476.021534320352
81.344,536.128153380433
81.3736,529.277161116719
81.4033,538.711305518171
81.4329,604.599730911543
81.4625,626.277497477295
81.4921,682.688193743697
81.5217,698.400403768506
81.5513,661.596030945179
81.5809,652.791456441305
81.6105,678.982503364731
81.6401,694.613521695258
81.6698,646.167507568123
81.6994,692.678331090172
81.729,714.641775983854
81.7586,701.384123780695
81.7882,633.493270524912
81.8178,602.587285570132
81.8474,588.40935082408
81.877,535.344549125163
81.9066,531.71712075345
81.9363,571.11167171207
81.9659,579.286579212915
81.9955,566.183041722748
82.0251,523.083417423492
82.0547,514.109317188026
82.0843,462.292732166893
82.1139,444.164480322906
82.1435,450.736966027582
82.1731,430.184387617767
82.2028,428.120753447697
82.2324,424.630676084764
82.262,416.371467025572
82.2916,402.811301715442
82.3212,408.423814328961
82.3508,413
82.3804,384.166498486382
82.41,366.225025227042
82.4396,372.135935397039
82.4693,384.802219979817
82.4989,399.090817356206
82.5285,430.733938782374
82.5581,447.985195154779
82.5877,437.461150353178
82.6173,427.06659939455
82.6469,441.936742934049
82.6765,454.235788765556
82.7061,452.786074672049
82.7357,478.460969044419
82.7654,542.468213925321
82.795,606.101917255289
82.8246,731.44818304172
82.8542,914.86680121092
82.8838,1221.9606458122
82.9134,1507.39300134587
82.943,1556.20854355869
82.9726,1355.34476959301
83.0022,1078.47023208882
83.0319,847.461978465629
83.0615,739.67103935419
83.0911,733.880255634036
83.1207,806.882234185706
83.1503,894.749075008414
83.1799,983.704339051463
83.2095,946.943808882896
83.2391,765.270433905188
83.2687,622.976454759501
83.2984,530.507402422583
83.328,500.268079381099
83.3576,474.340060544911
83.3872,438.122476446836
83.4168,423.841910528084
83.4464,434.387487386484
83.476,442.03734858681
83.5056,435.924318869828
83.5352,477.143962327611
83.5649,479.390178271109
83.5945,485.978465679691
83.6241,491.749411368992
83.6537,469.078708375379
83.6833,467.907133243608
83.7129,454.263370332997
83.7425,460.727547931388
83.7721,484.037685060564
83.8017,478.039354187684
83.8314,461.517658930374
83.861,466.878869448181
83.8906,462.30608812647
83.9202,442.18365287588
83.9498,441.765814266486
83.9794,443.713420787085
84.009,440.415741675076
84.0386,421.895728220655
84.0682,417.53297442799
84.0979,442.237470568449
84.1275,446.458123107972
84.1571,428.389973082095
84.1867,430.284561049443
84.2163,452.874537504201
84.2459,449.293405114401
84.2755,454.252270433905
84.3051,478.386141944161
84.3347,497.580080753704
84.3644,478.282542885974
84.394,495.233097880935
84.4236,537.783310901759
84.4532,592.054490413721
84.4828,618.613521695256
84.5124,628.712314939435
84.542,642.921964345774
84.5716,620.987891019173
84.6012,639.335015136224
84.6309,653.976446837142
84.6605,627.967036663308
84.6901,639.702993609156
84.7197,711.772543741596
84.7493,794.796165489388
84.7789,923.682811974417
84.8085,1079.38290713323
84.8381,1364.78304742678
84.8677,1834.79818365276
84.8974,2240.84051144013
84.927,2298.97477295662
84.9566,1916.17658930362
84.9862,1454.65814266483
85.0158,1070.23847965021
85.0454,941.118062563079
85.075,908.230743356867
85.1046,985.012786002713
85.1342,1135.6084762866
85.1639,1310.82273797511
85.1935,1272.0471063257
85.2231,1036.63975782044
85.2527,789.656912209844
85.2823,621.430013458926
85.3119,539.581231079719
85.3415,508.309788092836
85.3711,442.362718707946
85.4007,395.765220316176
85.4304,395.637403296341
85.46,357.45323014805
85.4896,358.528758829467
85.5192,376.353178607467
85.5488,354.707940780618
85.5784,307.733938782375
85.608,306.214934409688
85.6376,301.426841574166
85.6672,304.121130551813
85.6968,328.026236125121
85.7265,306.777329297004
85.7561,299.679676985195
85.7857,306.563067608478
85.8153,304.821392532792
85.8449,311.691790040377
85.8745,311.027917928014
85.9041,337.223343424152
85.9337,337.80484522208
85.9633,315.422805247223
85.993,324.167507568114
86.0226,311.877523553165
86.0522,323.49915909855
86.0818,333.394887319211
86.1114,309.460141271444
86.141,332.745289367428
86.1706,319.562058526741
86.2002,326.391523713423
86.2298,347.608008075369
86.2595,352.508913555333
86.2891,342.214934409686
86.3187,344.107335127858
86.3483,333.092499159102
86.3779,372.874537504204
86.4075,376.700538358
86.4371,430.523713420786
86.4667,442.255970400269
86.4963,461.718371467026
86.526,471.861083081065
86.5556,514.483350151374
86.5852,560.462987886944
86.6148,551.923309788091
86.6444,519.257988563739
86.674,530.307097208205
86.7036,544.892328398388
86.7332,536.685166498478
86.7628,595.044399596369
86.7925,576.738896366081
86.8221,561.522367978478
86.8517,588.22939791456
86.8813,551.438088829067
86.9109,530.360242179615
86.9405,560.715102589974
86.9701,523.290713324368
86.9997,494.482677430205
87.0293,509.863773965697
87.059,479.874831763123
87.0886,441.30373360242
87.1182,457.650857719477
87.1478,435.784729229739
87.1774,400.611372812922
87.207,395.749747729564
87.2366,425.410023545244
87.2662,373.598250336472
87.2958,384.949882273801
87.3255,335.921291624614
87.3551,383.967362045764
87.3847,353.239152371344
87.4143,328.547595021865
87.4439,349.548452220727
87.4735,328.428523377062
87.5031,353.830474268414
87.5327,340.030955585465
87.5623,343.807601749064
87.592,292.164143962319
87.6216,352.897410023537
87.6512,334.108681022883
87.6808,359.737638748733
87.7104,370.840901446349
87.74,353.339051463171
87.7696,351.045760430687
87.7992,322.790110998995
87.8288,361.703666330303
87.8585,367.838492597577
87.8881,415.203498150016
87.9177,405.492431886983
87.9473,394.495962314938
87.9769,423.46720484359
88.0065,386.206525395224
88.0361,393.42126514132
88.0657,396.813319878911
88.0953,422.201816347127
88.125,424
88.1546,391.50756811301
88.1842,404.70770265725
88.2138,439.105953582237
88.2434,473.128532974433
88.273,469.621594349143
88.3026,503.459468550282
88.3322,507.902759084791
88.3618,557.41305079044
88.3915,671.586612848971
88.4211,811.747308209983
88.4507,1073.25327951565
88.4803,1392.38883282881
88.5099,1915.18405114398
88.5395,2037.95425496132
88.5691,1806.24217961653
88.5987,1324.96837146697
88.6283,1064.45341405982
88.6579,846.723847965026
88.6876,768.791049798118
88.7172,784.912546249577
88.7468,902.003027245191
88.7764,1064.00605449042
88.806,1238.88963660835
88.8356,1165.7393205516
88.8652,897.084762865847
88.8948,735.994616419932
88.9244,575.378069290259
88.9541,536.946182307434
88.9837,417.067294750999
89.0133,409.737302388157
89.0429,412.379414732593
89.0725,377.333781965002
89.1021,348.952909519009
89.1317,382.2805247225
89.1613,370.578061911167
89.1909,369.734611503532
89.2206,329.231079717447
89.2502,336.025563403969
89.2798,351.134925975774
89.3094,364.854355869491
89.339,371.85469223007
89.3686,373
89.3982,389.013118062565
89.4278,403.097880928358
89.4574,400.721736204575
89.4871,409.543558694918
89.5167,461.668012108978
89.5463,460.129205921936
89.5759,445.116044399599
89.6055,446.415741675075
89.6351,434.827052489909
89.6647,427.817356205853
89.6943,385.055835856049
89.7239,396.323687752352
89.7536,386.174234779684
89.7832,375.858728557013
89.8128,401.247225025231
89.8424,390.842530282638
89.872,392.514631685163
89.9016,378.19172552977
89.9312,367.230148048452
89.9608,373.570131180623
89.9904,353.75008409014
