4.0001,1385.000000	
4.0297,1359.000000	
4.0593,1314.000000	
4.0889,1312.000000	
4.1185,1266.000000	
4.1482,1301.000000	
4.1778,1263.000000	
4.2074,1227.000000	
4.2370,1147.000000	
4.2666,1210.000000	
4.2962,1091.000000	
4.3258,1153.000000	
4.3554,1171.000000	
4.3850,1131.000000	
4.4147,1037.000000	
4.4443,1150.000000	
4.4739,1035.000000	
4.5035,997.000000	
4.5331,1047.000000	
4.5627,971.000000	
4.5923,1008.000000	
4.6219,943.000000	
4.6515,1051.000000	
4.6812,928.000000	
4.7108,914.000000	
4.7404,950.000000	
4.7700,1001.000000	
4.7996,916.000000	
4.8292,937.000000	
4.8588,909.000000	
4.8884,897.000000	
4.9180,895.000000	
4.9477,826.000000	
4.9773,901.000000	
5.0069,850.000000	
5.0365,859.000000	
5.0661,832.000000	
5.0957,864.000000	
5.1253,802.000000	
5.1549,874.000000	
5.1845,827.000000	
5.2142,795.000000	
5.2438,809.000000	
5.2734,727.000000	
5.3030,736.000000	
5.3326,764.000000	
5.3622,746.000000	
5.3918,740.000000	
5.4214,739.000000	
5.4510,714.000000	
5.4807,709.000000	
5.5103,710.000000	
5.5399,677.000000	
5.5695,676.000000	
5.5991,701.000000	
5.6287,737.000000	
5.6583,720.000000	
5.6879,672.000000	
5.7175,687.000000	
5.7471,640.000000	
5.7768,660.000000	
5.8064,628.000000	
5.8360,624.000000	
5.8656,664.000000	
5.8952,694.000000	
5.9248,635.000000	
5.9544,669.000000	
5.9840,646.000000	
6.0136,631.000000	
6.0433,614.000000	
6.0729,560.000000	
6.1025,619.000000	
6.1321,608.000000	
6.1617,573.000000	
6.1913,613.000000	
6.2209,606.000000	
6.2505,566.000000	
6.2801,575.000000	
6.3098,578.000000	
6.3394,584.000000	
6.3690,576.000000	
6.3986,602.000000	
6.4282,568.000000	
6.4578,562.000000	
6.4874,577.000000	
6.5170,554.000000	
6.5466,553.000000	
6.5763,566.000000	
6.6059,556.000000	
6.6355,537.000000	
6.6651,555.000000	
6.6947,516.000000	
6.7243,526.000000	
6.7539,502.000000	
6.7835,498.000000	
6.8131,519.000000	
6.8428,545.000000	
6.8724,480.000000	
6.9020,502.000000	
6.9316,522.000000	
6.9612,486.000000	
6.9908,480.000000	
7.0204,495.000000	
7.0500,484.000000	
7.0796,490.000000	
7.1093,523.000000	
7.1389,516.000000	
7.1685,453.000000	
7.1981,471.000000	
7.2277,503.000000	
7.2573,479.000000	
7.2869,467.000000	
7.3165,479.000000	
7.3461,454.000000	
7.3758,496.000000	
7.4054,480.000000	
7.4350,433.000000	
7.4646,479.000000	
7.4942,454.000000	
7.5238,443.000000	
7.5534,462.000000	
7.5830,445.000000	
7.6126,437.000000	
7.6423,420.000000	
7.6719,453.000000	
7.7015,461.000000	
7.7311,444.000000	
7.7607,441.000000	
7.7903,424.000000	
7.8199,436.000000	
7.8495,445.000000	
7.8791,465.000000	
7.9088,446.000000	
7.9384,446.000000	
7.9680,415.000000	
7.9976,397.000000	
8.0272,416.000000	
8.0568,461.000000	
8.0864,402.000000	
8.1160,431.000000	
8.1456,366.000000	
8.1753,397.000000	
8.2049,417.000000	
8.2345,402.000000	
8.2641,390.000000	
8.2937,379.000000	
8.3233,382.000000	
8.3529,402.000000	
8.3825,398.000000	
8.4121,369.000000	
8.4418,410.000000	
8.4714,442.000000	
8.5010,414.000000	
8.5306,403.000000	
8.5602,393.000000	
8.5898,403.000000	
8.6194,372.000000	
8.6490,394.000000	
8.6786,371.000000	
8.7082,376.000000	
8.7379,348.000000	
8.7675,410.000000	
8.7971,387.000000	
8.8267,408.000000	
8.8563,398.000000	
8.8859,409.000000	
8.9155,389.000000	
8.9451,387.000000	
8.9747,379.000000	
9.0044,383.000000	
9.0340,405.000000	
9.0636,379.000000	
9.0932,384.000000	
9.1228,394.000000	
9.1524,382.000000	
9.1820,370.000000	
9.2116,363.000000	
9.2412,380.000000	
9.2709,396.000000	
9.3005,365.000000	
9.3301,368.000000	
9.3597,352.000000	
9.3893,335.000000	
9.4189,345.000000	
9.4485,349.000000	
9.4781,396.000000	
9.5077,376.000000	
9.5374,320.000000	
9.5670,354.000000	
9.5966,341.000000	
9.6262,326.000000	
9.6558,329.000000	
9.6854,371.000000	
9.7150,330.000000	
9.7446,325.000000	
9.7742,380.000000	
9.8039,364.000000	
9.8335,335.000000	
9.8631,378.000000	
9.8927,336.000000	
9.9223,327.000000	
9.9519,342.000000	
9.9815,316.000000	
10.0111,335.000000	
10.0407,307.000000	
10.0704,318.000000	
10.1000,347.000000	
10.1296,351.000000	
10.1592,321.000000	
10.1888,292.000000	
10.2184,345.000000	
10.2480,348.000000	
10.2776,329.000000	
10.3072,320.000000	
10.3369,331.000000	
10.3665,343.000000	
10.3961,335.000000	
10.4257,315.000000	
10.4553,307.000000	
10.4849,365.000000	
10.5145,319.000000	
10.5441,301.000000	
10.5737,332.000000	
10.6034,325.000000	
10.6330,346.000000	
10.6626,343.000000	
10.6922,325.000000	
10.7218,314.000000	
10.7514,321.000000	
10.7810,298.000000	
10.8106,324.000000	
10.8402,316.000000	
10.8699,320.000000	
10.8995,292.000000	
10.9291,315.000000	
10.9587,314.000000	
10.9883,297.000000	
11.0179,304.000000	
11.0475,344.000000	
11.0771,332.000000	
11.1067,327.000000	
11.1364,329.000000	
11.1660,324.000000	
11.1956,314.000000	
11.2252,295.000000	
11.2548,279.000000	
11.2844,299.000000	
11.3140,340.000000	
11.3436,315.000000	
11.3732,318.000000	
11.4029,334.000000	
11.4325,314.000000	
11.4621,294.000000	
11.4917,308.000000	
11.5213,304.000000	
11.5509,310.000000	
11.5805,305.000000	
11.6101,307.000000	
11.6397,316.000000	
11.6693,341.000000	
11.6990,293.000000	
11.7286,294.000000	
11.7582,315.000000	
11.7878,310.000000	
11.8174,259.000000	
11.8470,291.000000	
11.8766,289.000000	
11.9062,308.000000	
11.9358,290.000000	
11.9655,271.000000	
11.9951,296.000000	
12.0247,289.000000	
12.0543,331.000000	
12.0839,275.000000	
12.1135,297.000000	
12.1431,282.000000	
12.1727,300.000000	
12.2023,283.000000	
12.2320,295.000000	
12.2616,303.000000	
12.2912,298.000000	
12.3208,302.000000	
12.3504,309.000000	
12.3800,305.000000	
12.4096,312.000000	
12.4392,304.000000	
12.4688,265.000000	
12.4985,276.000000	
12.5281,241.000000	
12.5577,314.000000	
12.5873,307.000000	
12.6169,307.000000	
12.6465,285.000000	
12.6761,282.000000	
12.7057,288.000000	
12.7353,295.000000	
12.7650,286.000000	
12.7946,307.000000	
12.8242,270.000000	
12.8538,286.000000	
12.8834,267.000000	
12.9130,302.000000	
12.9426,278.000000	
12.9722,307.000000	
13.0018,299.000000	
13.0315,276.000000	
13.0611,309.000000	
13.0907,288.000000	
13.1203,249.000000	
13.1499,304.000000	
13.1795,266.000000	
13.2091,295.000000	
13.2387,316.000000	
13.2683,283.000000	
13.2980,286.000000	
13.3276,270.000000	
13.3572,281.000000	
13.3868,293.000000	
13.4164,282.000000	
13.4460,288.000000	
13.4756,306.000000	
13.5052,257.000000	
13.5348,289.000000	
13.5645,313.000000	
13.5941,303.000000	
13.6237,303.000000	
13.6533,315.000000	
13.6829,279.000000	
13.7125,268.000000	
13.7421,294.000000	
13.7717,287.000000	
13.8013,277.000000	
13.8310,270.000000	
13.8606,303.000000	
13.8902,307.000000	
13.9198,301.000000	
13.9494,314.000000	
13.9790,307.000000	
14.0086,305.000000	
14.0382,296.000000	
14.0678,322.000000	
14.0975,316.000000	
14.1271,284.000000	
14.1567,319.000000	
14.1863,318.000000	
14.2159,340.000000	
14.2455,349.000000	
14.2751,349.000000	
14.3047,365.000000	
14.3343,337.000000	
14.3640,316.000000	
14.3936,289.000000	
14.4232,305.000000	
14.4528,322.000000	
14.4824,326.000000	
14.5120,282.000000	
14.5416,339.000000	
14.5712,286.000000	
14.6008,330.000000	
14.6304,315.000000	
14.6601,300.000000	
14.6897,287.000000	
14.7193,313.000000	
14.7489,301.000000	
14.7785,284.000000	
14.8081,313.000000	
14.8377,308.000000	
14.8673,267.000000	
14.8969,307.000000	
14.9266,312.000000	
14.9562,278.000000	
14.9858,300.000000	
15.0154,309.000000	
15.0450,302.000000	
15.0746,303.000000	
15.1042,289.000000	
15.1338,307.000000	
15.1634,317.000000	
15.1931,301.000000	
15.2227,306.000000	
15.2523,291.000000	
15.2819,307.000000	
15.3115,275.000000	
15.3411,334.000000	
15.3707,308.000000	
15.4003,265.000000	
15.4299,321.000000	
15.4596,296.000000	
15.4892,311.000000	
15.5188,299.000000	
15.5484,293.000000	
15.5780,318.000000	
15.6076,295.000000	
15.6372,303.000000	
15.6668,307.000000	
15.6964,258.000000	
15.7261,344.000000	
15.7557,295.000000	
15.7853,254.000000	
15.8149,278.000000	
15.8445,289.000000	
15.8741,292.000000	
15.9037,317.000000	
15.9333,302.000000	
15.9629,310.000000	
15.9926,304.000000	
16.0222,333.000000	
16.0518,341.000000	
16.0814,274.000000	
16.1110,279.000000	
16.1406,321.000000	
16.1702,338.000000	
16.1998,316.000000	
16.2294,303.000000	
16.2591,283.000000	
16.2887,304.000000	
16.3183,275.000000	
16.3479,332.000000	
16.3775,344.000000	
16.4071,358.000000	
16.4367,385.000000	
16.4663,492.000000	
16.4959,663.000000	
16.5256,843.000000	
16.5552,567.000000	
16.5848,379.000000	
16.6144,367.000000	
16.6440,389.000000	
16.6736,387.000000	
16.7032,369.000000	
16.7328,329.000000	
16.7624,336.000000	
16.7921,385.000000	
16.8217,353.000000	
16.8513,354.000000	
16.8809,381.000000	
16.9105,383.000000	
16.9401,356.000000	
16.9697,414.000000	
16.9993,418.000000	
17.0289,376.000000	
17.0586,389.000000	
17.0882,388.000000	
17.1178,408.000000	
17.1474,396.000000	
17.1770,443.000000	
17.2066,416.000000	
17.2362,429.000000	
17.2658,450.000000	
17.2954,436.000000	
17.3251,493.000000	
17.3547,477.000000	
17.3843,474.000000	
17.4139,505.000000	
17.4435,522.000000	
17.4731,557.000000	
17.5027,615.000000	
17.5323,576.000000	
17.5619,602.000000	
17.5915,652.000000	
17.6212,667.000000	
17.6508,678.000000	
17.6804,735.000000	
17.7100,748.000000	
17.7396,778.000000	
17.7692,812.000000	
17.7988,894.000000	
17.8284,905.000000	
17.8580,967.000000	
17.8877,1112.000000	
17.9173,1086.000000	
17.9469,1263.000000	
17.9765,1410.000000	
18.0061,1589.000000	
18.0357,1832.000000	
18.0653,2140.000000	
18.0949,2720.000000	
18.1245,3865.000000	
18.1542,5792.000000	
18.1838,10783.000000	
18.2134,22490.000000	
18.2430,50437.000000	
18.2726,119816.000000	
18.3022,180776.000000	
18.3318,120068.000000	
18.3614,67417.000000	
18.3910,19464.000000	
18.4207,9283.000000	
18.4503,5817.000000	
18.4799,4322.000000	
18.5095,3474.000000	
18.5391,2972.000000	
18.5687,2468.000000	
18.5983,2181.000000	
18.6279,2017.000000	
18.6575,1761.000000	
18.6872,1694.000000	
18.7168,1579.000000	
18.7464,1445.000000	
18.7760,1358.000000	
18.8056,1265.000000	
18.8352,1172.000000	
18.8648,1178.000000	
18.8944,1091.000000	
18.9240,1033.000000	
18.9537,1029.000000	
18.9833,924.000000	
19.0129,868.000000	
19.0425,895.000000	
19.0721,866.000000	
19.1017,822.000000	
19.1313,828.000000	
19.1609,791.000000	
19.1905,769.000000	
19.2202,735.000000	
19.2498,687.000000	
19.2794,685.000000	
19.3090,700.000000	
19.3386,606.000000	
19.3682,630.000000	
19.3978,610.000000	
19.4274,575.000000	
19.4570,571.000000	
19.4867,554.000000	
19.5163,508.000000	
19.5459,539.000000	
19.5755,520.000000	
19.6051,540.000000	
19.6347,530.000000	
19.6643,535.000000	
19.6939,537.000000	
19.7235,489.000000	
19.7532,507.000000	
19.7828,509.000000	
19.8124,517.000000	
19.8420,512.000000	
19.8716,518.000000	
19.9012,567.000000	
19.9308,582.000000	
19.9604,595.000000	
19.9900,663.000000	
20.0197,654.000000	
20.0493,760.000000	
20.0789,941.000000	
20.1085,1186.000000	
20.1381,1680.000000	
20.1677,2414.000000	
20.1973,4162.000000	
20.2269,7332.000000	
20.2565,13675.000000	
20.2862,20009.000000	
20.3158,17252.000000	
20.3454,12659.000000	
20.3750,7016.000000	
20.4046,4206.000000	
20.4342,3670.000000	
20.4638,4231.000000	
20.4934,5986.000000	
20.5230,8616.000000	
20.5526,8312.000000	
20.5823,6511.000000	
20.6119,4002.000000	
20.6415,2182.000000	
20.6711,1554.000000	
20.7007,1169.000000	
20.7303,916.000000	
20.7599,853.000000	
20.7895,773.000000	
20.8191,834.000000	
20.8488,899.000000	
20.8784,763.000000	
20.9080,713.000000	
20.9376,546.000000	
20.9672,492.000000	
20.9968,490.000000	
21.0264,525.000000	
21.0560,481.000000	
21.0856,472.000000	
21.1153,438.000000	
21.1449,462.000000	
21.1745,429.000000	
21.2041,415.000000	
21.2337,456.000000	
21.2633,450.000000	
21.2929,360.000000	
21.3225,389.000000	
21.3521,402.000000	
21.3818,387.000000	
21.4114,367.000000	
21.4410,387.000000	
21.4706,377.000000	
21.5002,361.000000	
21.5298,377.000000	
21.5594,355.000000	
21.5890,348.000000	
21.6186,373.000000	
21.6483,355.000000	
21.6779,336.000000	
21.7075,367.000000	
21.7371,359.000000	
21.7667,383.000000	
21.7963,335.000000	
21.8259,322.000000	
21.8555,344.000000	
21.8851,324.000000	
21.9148,338.000000	
21.9444,319.000000	
21.9740,320.000000	
22.0036,326.000000	
22.0332,320.000000	
22.0628,342.000000	
22.0924,349.000000	
22.1220,315.000000	
22.1516,335.000000	
22.1813,318.000000	
22.2109,309.000000	
22.2405,277.000000	
22.2701,316.000000	
22.2997,333.000000	
22.3293,331.000000	
22.3589,304.000000	
22.3885,310.000000	
22.4181,319.000000	
22.4478,293.000000	
22.4774,342.000000	
22.5070,313.000000	
22.5366,373.000000	
22.5662,333.000000	
22.5958,363.000000	
22.6254,362.000000	
22.6550,356.000000	
22.6846,356.000000	
22.7143,381.000000	
22.7439,386.000000	
22.7735,426.000000	
22.8031,414.000000	
22.8327,522.000000	
22.8623,589.000000	
22.8919,711.000000	
22.9215,944.000000	
22.9511,1339.000000	
22.9808,2078.000000	
23.0104,3455.000000	
23.0400,5117.000000	
23.0696,6474.000000	
23.0992,5759.000000	
23.1288,4618.000000	
23.1584,2898.000000	
23.1880,1757.000000	
23.2176,1067.000000	
23.2473,750.000000	
23.2769,657.000000	
23.3065,540.000000	
23.3361,494.000000	
23.3657,448.000000	
23.3953,419.000000	
23.4249,394.000000	
23.4545,359.000000	
23.4841,348.000000	
23.5137,366.000000	
23.5434,370.000000	
23.5730,304.000000	
23.6026,314.000000	
23.6322,322.000000	
23.6618,282.000000	
23.6914,302.000000	
23.7210,328.000000	
23.7506,328.000000	
23.7802,308.000000	
23.8099,315.000000	
23.8395,309.000000	
23.8691,312.000000	
23.8987,281.000000	
23.9283,317.000000	
23.9579,334.000000	
23.9875,321.000000	
24.0171,328.000000	
24.0467,335.000000	
24.0764,309.000000	
24.1060,296.000000	
24.1356,321.000000	
24.1652,310.000000	
24.1948,322.000000	
24.2244,296.000000	
24.2540,316.000000	
24.2836,308.000000	
24.3132,273.000000	
24.3429,317.000000	
24.3725,321.000000	
24.4021,296.000000	
24.4317,320.000000	
24.4613,294.000000	
24.4909,320.000000	
24.5205,281.000000	
24.5501,297.000000	
24.5797,314.000000	
24.6094,296.000000	
24.6390,280.000000	
24.6686,287.000000	
24.6982,256.000000	
24.7278,315.000000	
24.7574,296.000000	
24.7870,294.000000	
24.8166,285.000000	
24.8462,279.000000	
24.8759,282.000000	
24.9055,327.000000	
24.9351,258.000000	
24.9647,291.000000	
24.9943,292.000000	
25.0239,298.000000	
25.0535,292.000000	
25.0831,306.000000	
25.1127,261.000000	
25.1424,273.000000	
25.1720,293.000000	
25.2016,305.000000	
25.2312,303.000000	
25.2608,299.000000	
25.2904,312.000000	
25.3200,280.000000	
25.3496,274.000000	
25.3792,305.000000	
25.4089,279.000000	
25.4385,259.000000	
25.4681,272.000000	
25.4977,306.000000	
25.5273,294.000000	
25.5569,316.000000	
25.5865,296.000000	
25.6161,272.000000	
25.6457,307.000000	
25.6754,326.000000	
25.7050,291.000000	
25.7346,319.000000	
25.7642,308.000000	
25.7938,339.000000	
25.8234,312.000000	
25.8530,321.000000	
25.8826,345.000000	
25.9122,314.000000	
25.9419,324.000000	
25.9715,310.000000	
26.0011,346.000000	
26.0307,354.000000	
26.0603,330.000000	
26.0899,443.000000	
26.1195,381.000000	
26.1491,400.000000	
26.1787,421.000000	
26.2084,455.000000	
26.2380,500.000000	
26.2676,562.000000	
26.2972,571.000000	
26.3268,653.000000	
26.3564,766.000000	
26.3860,941.000000	
26.4156,1210.000000	
26.4452,1669.000000	
26.4748,2191.000000	
26.5045,2754.000000	
26.5341,2840.000000	
26.5637,2604.000000	
26.5933,2545.000000	
26.6229,2565.000000	
26.6525,2266.000000	
26.6821,1871.000000	
26.7117,1737.000000	
26.7413,1534.000000	
26.7710,1679.000000	
26.8006,2143.000000	
26.8302,2965.000000	
26.8598,3982.000000	
26.8894,4815.000000	
26.9190,4237.000000	
26.9486,3645.000000	
26.9782,2814.000000	
27.0078,1900.000000	
27.0375,1497.000000	
27.0671,1161.000000	
27.0967,1006.000000	
27.1263,867.000000	
27.1559,797.000000	
27.1855,717.000000	
27.2151,645.000000	
27.2447,581.000000	
27.2743,586.000000	
27.3040,532.000000	
27.3336,510.000000	
27.3632,538.000000	
27.3928,498.000000	
27.4224,550.000000	
27.4520,514.000000	
27.4816,505.000000	
27.5112,465.000000	
27.5408,534.000000	
27.5705,527.000000	
27.6001,534.000000	
27.6297,530.000000	
27.6593,573.000000	
27.6889,637.000000	
27.7185,682.000000	
27.7481,690.000000	
27.7777,673.000000	
27.8073,817.000000	
27.8370,916.000000	
27.8666,1120.000000	
27.8962,1412.000000	
27.9258,1901.000000	
27.9554,2617.000000	
27.9850,3463.000000	
28.0146,3689.000000	
28.0442,3148.000000	
28.0738,2989.000000	
28.1035,2271.000000	
28.1331,1681.000000	
28.1627,1391.000000	
28.1923,1093.000000	
28.2219,979.000000	
28.2515,865.000000	
28.2811,754.000000	
28.3107,791.000000	
28.3403,670.000000	
28.3700,700.000000	
28.3996,693.000000	
28.4292,665.000000	
28.4588,695.000000	
28.4884,742.000000	
28.5180,744.000000	
28.5476,762.000000	
28.5772,907.000000	
28.6068,999.000000	
28.6365,1188.000000	
28.6661,1484.000000	
28.6957,1815.000000	
28.7253,1927.000000	
28.7549,1788.000000	
28.7845,1689.000000	
28.8141,1483.000000	
28.8437,1145.000000	
28.8733,1020.000000	
28.9030,943.000000	
28.9326,924.000000	
28.9622,918.000000	
28.9918,1040.000000	
29.0214,1040.000000	
29.0510,1139.000000	
29.0806,1276.000000	
29.1102,1519.000000	
29.1398,1817.000000	
29.1695,2354.000000	
29.1991,3064.000000	
29.2287,4191.000000	
29.2583,6019.000000	
29.2879,9195.000000	
29.3175,14591.000000	
29.3471,25408.000000	
29.3767,44085.000000	
29.4063,64825.000000	
29.4359,64512.000000	
29.4656,52511.000000	
29.4952,43869.000000	
29.5248,27936.000000	
29.5544,15270.000000	
29.5840,8937.000000	
29.6136,5739.000000	
29.6432,3979.000000	
29.6728,2946.000000	
29.7024,2356.000000	
29.7321,1810.000000	
29.7617,1569.000000	
29.7913,1410.000000	
29.8209,1272.000000	
29.8505,1060.000000	
29.8801,1012.000000	
29.9097,912.000000	
29.9393,870.000000	
29.9689,814.000000	
29.9986,757.000000	
30.0282,771.000000	
30.0578,729.000000	
30.0874,691.000000	
30.1170,676.000000	
30.1466,699.000000	
30.1762,612.000000	
30.2058,666.000000	
30.2354,636.000000	
30.2651,646.000000	
30.2947,577.000000	
30.3243,537.000000	
30.3539,535.000000	
30.3835,551.000000	
30.4131,507.000000	
30.4427,529.000000	
30.4723,514.000000	
30.5019,546.000000	
30.5316,531.000000	
30.5612,509.000000	
30.5908,491.000000	
30.6204,484.000000	
30.6500,475.000000	
30.6796,515.000000	
30.7092,535.000000	
30.7388,516.000000	
30.7684,493.000000	
30.7981,513.000000	
30.8277,497.000000	
30.8573,456.000000	
30.8869,474.000000	
30.9165,437.000000	
30.9461,464.000000	
30.9757,438.000000	
31.0053,466.000000	
31.0349,451.000000	
31.0646,466.000000	
31.0942,398.000000	
31.1238,402.000000	
31.1534,454.000000	
31.1830,444.000000	
31.2126,453.000000	
31.2422,478.000000	
31.2718,507.000000	
31.3014,625.000000	
31.3311,700.000000	
31.3607,895.000000	
31.3903,1059.000000	
31.4199,1522.000000	
31.4495,1737.000000	
31.4791,1789.000000	
31.5087,1536.000000	
31.5383,1390.000000	
31.5679,1063.000000	
31.5976,831.000000	
31.6272,669.000000	
31.6568,584.000000	
31.6864,539.000000	
31.7160,492.000000	
31.7456,456.000000	
31.7752,422.000000	
31.8048,425.000000	
31.8344,402.000000	
31.8641,423.000000	
31.8937,451.000000	
31.9233,465.000000	
31.9529,448.000000	
31.9825,403.000000	
32.0121,366.000000	
32.0417,372.000000	
32.0713,354.000000	
32.1009,336.000000	
32.1306,314.000000	
32.1602,337.000000	
32.1898,318.000000	
32.2194,314.000000	
32.2490,341.000000	
32.2786,313.000000	
32.3082,317.000000	
32.3378,343.000000	
32.3674,299.000000	
32.3970,359.000000	
32.4267,342.000000	
32.4563,335.000000	
32.4859,318.000000	
32.5155,300.000000	
32.5451,312.000000	
32.5747,290.000000	
32.6043,296.000000	
32.6339,316.000000	
32.6635,269.000000	
32.6932,307.000000	
32.7228,302.000000	
32.7524,303.000000	
32.7820,325.000000	
32.8116,344.000000	
32.8412,325.000000	
32.8708,315.000000	
32.9004,311.000000	
32.9300,341.000000	
32.9597,387.000000	
32.9893,377.000000	
33.0189,376.000000	
33.0485,427.000000	
33.0781,471.000000	
33.1077,513.000000	
33.1373,463.000000	
33.1669,438.000000	
33.1965,430.000000	
33.2262,375.000000	
33.2558,344.000000	
33.2854,344.000000	
33.3150,354.000000	
33.3446,330.000000	
33.3742,357.000000	
33.4038,311.000000	
33.4334,345.000000	
33.4630,293.000000	
33.4927,339.000000	
33.5223,360.000000	
33.5519,327.000000	
33.5815,305.000000	
33.6111,333.000000	
33.6407,368.000000	
33.6703,372.000000	
33.6999,375.000000	
33.7295,421.000000	
33.7592,481.000000	
33.7888,498.000000	
33.8184,555.000000	
33.8480,567.000000	
33.8776,491.000000	
33.9072,506.000000	
33.9368,487.000000	
33.9664,406.000000	
33.9960,407.000000	
34.0257,353.000000	
34.0553,312.000000	
34.0849,373.000000	
34.1145,337.000000	
34.1441,348.000000	
34.1737,362.000000	
34.2033,318.000000	
34.2329,309.000000	
34.2625,355.000000	
34.2922,324.000000	
34.3218,328.000000	
34.3514,328.000000	
34.3810,379.000000	
34.4106,310.000000	
34.4402,336.000000	
34.4698,329.000000	
34.4994,312.000000	
34.5290,315.000000	
34.5587,324.000000	
34.5883,284.000000	
34.6179,343.000000	
34.6475,336.000000	
34.6771,302.000000	
34.7067,351.000000	
34.7363,316.000000	
34.7659,322.000000	
34.7955,336.000000	
34.8252,354.000000	
34.8548,334.000000	
34.8844,356.000000	
34.9140,308.000000	
34.9436,301.000000	
34.9732,314.000000	
35.0028,371.000000	
35.0324,357.000000	
35.0620,347.000000	
35.0917,339.000000	
35.1213,347.000000	
35.1509,345.000000	
35.1805,332.000000	
35.2101,375.000000	
35.2397,387.000000	
35.2693,390.000000	
35.2989,416.000000	
35.3285,368.000000	
35.3581,378.000000	
35.3878,427.000000	
35.4174,378.000000	
35.4470,432.000000	
35.4766,423.000000	
35.5062,454.000000	
35.5358,448.000000	
35.5654,480.000000	
35.5950,490.000000	
35.6246,457.000000	
35.6543,498.000000	
35.6839,528.000000	
35.7135,610.000000	
35.7431,711.000000	
35.7727,836.000000	
35.8023,1023.000000	
35.8319,1335.000000	
35.8615,1789.000000	
35.8911,2452.000000	
35.9208,3770.000000	
35.9504,5682.000000	
35.9800,7156.000000	
36.0096,6860.000000	
36.0392,5825.000000	
36.0688,5461.000000	
36.0984,4396.000000	
36.1280,3004.000000	
36.1576,2164.000000	
36.1873,1678.000000	
36.2169,1492.000000	
36.2465,1349.000000	
36.2761,1587.000000	
36.3057,1829.000000	
36.3353,2281.000000	
36.3649,2919.000000	
36.3945,3332.000000	
36.4241,3197.000000	
36.4538,3035.000000	
36.4834,3344.000000	
36.5130,3394.000000	
36.5426,3883.000000	
36.5722,4817.000000	
36.6018,5692.000000	
36.6314,5173.000000	
36.6610,4396.000000	
36.6906,4065.000000	
36.7203,3341.000000	
36.7499,2269.000000	
36.7795,1748.000000	
36.8091,1429.000000	
36.8387,1230.000000	
36.8683,1087.000000	
36.8979,1019.000000	
36.9275,1012.000000	
36.9571,1101.000000	
36.9868,1302.000000	
37.0164,1973.000000	
37.0460,3155.000000	
37.0756,4590.000000	
37.1052,3272.000000	
37.1348,2569.000000	
37.1644,2921.000000	
37.1940,2257.000000	
37.2236,1356.000000	
37.2533,996.000000	
37.2829,957.000000	
37.3125,865.000000	
37.3421,876.000000	
37.3717,899.000000	
37.4013,1042.000000	
37.4309,1111.000000	
37.4605,1256.000000	
37.4901,1528.000000	
37.5198,1871.000000	
37.5494,2300.000000	
37.5790,2981.000000	
37.6086,4291.000000	
37.6382,5714.000000	
37.6678,7059.000000	
37.6974,6192.000000	
37.7270,5186.000000	
37.7566,5046.000000	
37.7863,4268.000000	
37.8159,3054.000000	
37.8455,2349.000000	
37.8751,1858.000000	
37.9047,1540.000000	
37.9343,1307.000000	
37.9639,1170.000000	
37.9935,997.000000	
38.0231,891.000000	
38.0528,844.000000	
38.0824,729.000000	
38.1120,730.000000	
38.1416,711.000000	
38.1712,681.000000	
38.2008,655.000000	
38.2304,762.000000	
38.2600,769.000000	
38.2896,803.000000	
38.3192,858.000000	
38.3489,782.000000	
38.3785,725.000000	
38.4081,764.000000	
38.4377,662.000000	
38.4673,613.000000	
38.4969,607.000000	
38.5265,605.000000	
38.5561,549.000000	
38.5857,536.000000	
38.6154,494.000000	
38.6450,552.000000	
38.6746,518.000000	
38.7042,523.000000	
38.7338,506.000000	
38.7634,534.000000	
38.7930,573.000000	
38.8226,573.000000	
38.8522,584.000000	
38.8819,607.000000	
38.9115,593.000000	
38.9411,664.000000	
38.9707,659.000000	
39.0003,717.000000	
39.0299,786.000000	
39.0595,823.000000	
39.0891,889.000000	
39.1187,987.000000	
39.1484,1125.000000	
39.1780,1445.000000	
39.2076,1756.000000	
39.2372,2323.000000	
39.2668,2949.000000	
39.2964,3699.000000	
39.3260,4680.000000	
39.3556,6077.000000	
39.3852,8224.000000	
39.4149,10263.000000	
39.4445,10466.000000	
39.4741,8894.000000	
39.5037,7874.000000	
39.5333,6973.000000	
39.5629,5353.000000	
39.5925,3830.000000	
39.6221,2602.000000	
39.6517,1927.000000	
39.6814,1577.000000	
39.7110,1305.000000	
39.7406,1162.000000	
39.7702,1121.000000	
39.7998,1079.000000	
39.8294,970.000000	
39.8590,970.000000	
39.8886,960.000000	
39.9182,1007.000000	
39.9479,1005.000000	
39.9775,1217.000000	
40.0071,1449.000000	
40.0367,1835.000000	
40.0663,2231.000000	
40.0959,2719.000000	
40.1255,2610.000000	
40.1551,2266.000000	
40.1847,2205.000000	
40.2144,2092.000000	
40.2440,1851.000000	
40.2736,1452.000000	
40.3032,1223.000000	
40.3328,1056.000000	
40.3624,929.000000	
40.3920,910.000000	
40.4216,773.000000	
40.4512,726.000000	
40.4809,668.000000	
40.5105,641.000000	
40.5401,636.000000	
40.5697,621.000000	
40.5993,617.000000	
40.6289,552.000000	
40.6585,539.000000	
40.6881,585.000000	
40.7177,560.000000	
40.7474,541.000000	
40.7770,596.000000	
40.8066,505.000000	
40.8362,611.000000	
40.8658,527.000000	
40.8954,512.000000	
40.9250,572.000000	
40.9546,561.000000	
40.9842,611.000000	
41.0139,621.000000	
41.0435,622.000000	
41.0731,660.000000	
41.1027,678.000000	
41.1323,761.000000	
41.1619,770.000000	
41.1915,855.000000	
41.2211,941.000000	
41.2507,869.000000	
41.2803,846.000000	
41.3100,877.000000	
41.3396,825.000000	
41.3692,845.000000	
41.3988,940.000000	
41.4284,901.000000	
41.4580,966.000000	
41.4876,986.000000	
41.5172,1226.000000	
41.5468,1402.000000	
41.5765,1661.000000	
41.6061,1993.000000	
41.6357,2589.000000	
41.6653,2991.000000	
41.6949,3045.000000	
41.7245,2663.000000	
41.7541,2483.000000	
41.7837,2441.000000	
41.8133,2221.000000	
41.8430,1918.000000	
41.8726,1709.000000	
41.9022,1458.000000	
41.9318,1367.000000	
41.9614,1164.000000	
41.9910,994.000000	
42.0206,901.000000	
42.0502,828.000000	
42.0798,739.000000	
42.1095,698.000000	
42.1391,625.000000	
42.1687,635.000000	
42.1983,601.000000	
42.2279,596.000000	
42.2575,553.000000	
42.2871,569.000000	
42.3167,547.000000	
42.3463,544.000000	
42.3760,604.000000	
42.4056,577.000000	
42.4352,589.000000	
42.4648,530.000000	
42.4944,556.000000	
42.5240,562.000000	
42.5536,567.000000	
42.5832,588.000000	
42.6128,577.000000	
42.6425,544.000000	
42.6721,601.000000	
42.7017,577.000000	
42.7313,615.000000	
42.7609,572.000000	
42.7905,611.000000	
42.8201,613.000000	
42.8497,684.000000	
42.8793,706.000000	
42.9090,838.000000	
42.9386,908.000000	
42.9682,1069.000000	
42.9978,1324.000000	
43.0274,1636.000000	
43.0570,2210.000000	
43.0866,3192.000000	
43.1162,4775.000000	
43.1458,7083.000000	
43.1755,8796.000000	
43.2051,8205.000000	
43.2347,6850.000000	
43.2643,6160.000000	
43.2939,5954.000000	
43.3235,4594.000000	
43.3531,3259.000000	
43.3827,2396.000000	
43.4123,1778.000000	
43.4420,1436.000000	
43.4716,1166.000000	
43.5012,1115.000000	
43.5308,1059.000000	
43.5604,919.000000	
43.5900,903.000000	
43.6196,807.000000	
43.6492,909.000000	
43.6788,807.000000	
43.7085,777.000000	
43.7381,827.000000	
43.7677,878.000000	
43.7973,880.000000	
43.8269,924.000000	
43.8565,988.000000	
43.8861,1027.000000	
43.9157,1157.000000	
43.9453,1315.000000	
43.9750,1421.000000	
44.0046,1774.000000	
44.0342,2011.000000	
44.0638,2536.000000	
44.0934,3229.000000	
44.1230,3990.000000	
44.1526,4692.000000	
44.1822,4596.000000	
44.2118,4009.000000	
44.2414,3807.000000	
44.2711,3732.000000	
44.3007,3168.000000	
44.3303,2555.000000	
44.3599,2049.000000	
44.3895,1842.000000	
44.4191,1523.000000	
44.4487,1407.000000	
44.4783,1247.000000	
44.5079,1108.000000	
44.5376,997.000000	
44.5672,1045.000000	
44.5968,997.000000	
44.6264,941.000000	
44.6560,976.000000	
44.6856,960.000000	
44.7152,982.000000	
44.7448,934.000000	
44.7744,969.000000	
44.8041,915.000000	
44.8337,888.000000	
44.8633,863.000000	
44.8929,875.000000	
44.9225,859.000000	
44.9521,839.000000	
44.9817,799.000000	
45.0113,850.000000	
45.0409,904.000000	
45.0706,882.000000	
45.1002,942.000000	
45.1298,994.000000	
45.1594,1013.000000	
45.1890,1078.000000	
45.2186,1209.000000	
45.2482,1339.000000	
45.2778,1427.000000	
45.3074,1718.000000	
45.3371,2134.000000	
45.3667,2684.000000	
45.3963,3213.000000	
45.4259,3709.000000	
45.4555,3625.000000	
45.4851,3318.000000	
45.5147,3058.000000	
45.5443,2837.000000	
45.5739,2538.000000	
45.6036,2078.000000	
45.6332,1682.000000	
45.6628,1422.000000	
45.6924,1254.000000	
45.7220,1084.000000	
45.7516,1019.000000	
45.7812,937.000000	
45.8108,826.000000	
45.8404,877.000000	
45.8701,860.000000	
45.8997,808.000000	
45.9293,751.000000	
45.9589,746.000000	
45.9885,752.000000	
46.0181,730.000000	
46.0477,837.000000	
46.0773,936.000000	
46.1069,930.000000	
46.1366,1030.000000	
46.1662,1116.000000	
46.1958,1065.000000	
46.2254,1049.000000	
46.2550,961.000000	
46.2846,910.000000	
46.3142,927.000000	
46.3438,857.000000	
46.3734,765.000000	
46.4031,742.000000	
46.4327,690.000000	
46.4623,646.000000	
46.4919,648.000000	
46.5215,709.000000	
46.5511,653.000000	
46.5807,635.000000	
46.6103,658.000000	
46.6399,681.000000	
46.6696,666.000000	
46.6992,711.000000	
46.7288,684.000000	
46.7584,742.000000	
46.7880,725.000000	
46.8176,780.000000	
46.8472,884.000000	
46.8768,893.000000	
46.9064,1003.000000	
46.9361,1166.000000	
46.9657,1320.000000	
46.9953,1470.000000	
47.0249,1795.000000	
47.0545,2261.000000	
47.0841,2863.000000	
47.1137,3272.000000	
47.1433,3616.000000	
47.1729,3626.000000	
47.2025,3542.000000	
47.2322,3701.000000	
47.2618,3880.000000	
47.2914,4090.000000	
47.3210,4260.000000	
47.3506,4763.000000	
47.3802,5387.000000	
47.4098,5823.000000	
47.4394,6351.000000	
47.4690,7545.000000	
47.4987,9183.000000	
47.5283,9973.000000	
47.5579,9532.000000	
47.5875,8450.000000	
47.6171,7553.000000	
47.6467,7000.000000	
47.6763,6045.000000	
47.7059,4845.000000	
47.7355,3626.000000	
47.7652,2919.000000	
47.7948,2240.000000	
47.8244,1931.000000	
47.8540,1718.000000	
47.8836,1400.000000	
47.9132,1307.000000	
47.9428,1207.000000	
47.9724,1193.000000	
48.0020,1114.000000	
48.0317,1070.000000	
48.0613,1018.000000	
48.0909,1073.000000	
48.1205,1061.000000	
48.1501,1067.000000	
48.1797,1067.000000	
48.2093,1215.000000	
48.2389,1216.000000	
48.2685,1410.000000	
48.2982,1573.000000	
48.3278,1837.000000	
48.3574,2275.000000	
48.3870,2782.000000	
48.4166,3580.000000	
48.4462,4755.000000	
48.4758,6616.000000	
48.5054,8344.000000	
48.5350,9059.000000	
48.5647,8449.000000	
48.5943,7245.000000	
48.6239,6864.000000	
48.6535,6447.000000	
48.6831,5440.000000	
48.7127,4189.000000	
48.7423,3080.000000	
48.7719,2360.000000	
48.8015,1840.000000	
48.8312,1499.000000	
48.8608,1211.000000	
48.8904,1098.000000	
48.9200,1026.000000	
48.9496,880.000000	
48.9792,843.000000	
49.0088,775.000000	
49.0384,760.000000	
49.0680,730.000000	
49.0977,651.000000	
49.1273,618.000000	
49.1569,646.000000	
49.1865,573.000000	
49.2161,586.000000	
49.2457,636.000000	
49.2753,599.000000	
49.3049,633.000000	
49.3345,555.000000	
49.3642,565.000000	
49.3938,581.000000	
49.4234,556.000000	
49.4530,556.000000	
49.4826,567.000000	
49.5122,532.000000	
49.5418,536.000000	
49.5714,485.000000	
49.6010,525.000000	
49.6307,494.000000	
49.6603,486.000000	
49.6899,518.000000	
49.7195,519.000000	
49.7491,564.000000	
49.7787,537.000000	
49.8083,542.000000	
49.8379,561.000000	
49.8675,538.000000	
49.8972,546.000000	
49.9268,537.000000	
49.9564,605.000000	
49.9860,609.000000	
50.0156,658.000000	
50.0452,655.000000	
50.0748,661.000000	
50.1044,768.000000	
50.1340,855.000000	
50.1636,793.000000	
50.1933,852.000000	
50.2229,827.000000	
50.2525,945.000000	
50.2821,1118.000000	
50.3117,1217.000000	
50.3413,1339.000000	
50.3709,1566.000000	
50.4005,1792.000000	
50.4301,2235.000000	
50.4598,2652.000000	
50.4894,3326.000000	
50.5190,3697.000000	
50.5486,3668.000000	
50.5782,3306.000000	
50.6078,3050.000000	
50.6374,3060.000000	
50.6670,2830.000000	
50.6966,2455.000000	
50.7263,1986.000000	
50.7559,1715.000000	
50.7855,1474.000000	
50.8151,1316.000000	
50.8447,1161.000000	
50.8743,1010.000000	
50.9039,1042.000000	
50.9335,887.000000	
50.9631,879.000000	
50.9928,741.000000	
51.0224,711.000000	
51.0520,721.000000	
51.0816,715.000000	
51.1112,661.000000	
51.1408,558.000000	
51.1704,612.000000	
51.2000,613.000000	
51.2296,616.000000	
51.2593,562.000000	
51.2889,610.000000	
51.3185,581.000000	
51.3481,542.000000	
51.3777,577.000000	
51.4073,600.000000	
51.4369,566.000000	
51.4665,613.000000	
51.4961,599.000000	
51.5258,614.000000	
51.5554,597.000000	
51.5850,574.000000	
51.6146,599.000000	
51.6442,584.000000	
51.6738,613.000000	
51.7034,592.000000	
51.7330,651.000000	
51.7626,657.000000	
51.7923,716.000000	
51.8219,804.000000	
51.8515,806.000000	
51.8811,875.000000	
51.9107,980.000000	
51.9403,1078.000000	
51.9699,1217.000000	
51.9995,1357.000000	
52.0291,1628.000000	
52.0588,1901.000000	
52.0884,2427.000000	
52.1180,2971.000000	
52.1476,3516.000000	
52.1772,3682.000000	
52.2068,3466.000000	
52.2364,3131.000000	
52.2660,2921.000000	
52.2956,2785.000000	
52.3253,2566.000000	
52.3549,2138.000000	
52.3845,1777.000000	
52.4141,1521.000000	
52.4437,1230.000000	
52.4733,1124.000000	
52.5029,1004.000000	
52.5325,1010.000000	
52.5621,948.000000	
52.5918,951.000000	
52.6214,985.000000	
52.6510,942.000000	
52.6806,931.000000	
52.7102,866.000000	
52.7398,816.000000	
52.7694,791.000000	
52.7990,756.000000	
52.8286,703.000000	
52.8583,698.000000	
52.8879,577.000000	
52.9175,554.000000	
52.9471,599.000000	
52.9767,534.000000	
53.0063,566.000000	
53.0359,504.000000	
53.0655,556.000000	
53.0951,527.000000	
53.1247,501.000000	
53.1544,528.000000	
53.1840,479.000000	
53.2136,501.000000	
53.2432,498.000000	
53.2728,483.000000	
53.3024,479.000000	
53.3320,549.000000	
53.3616,479.000000	
53.3912,473.000000	
53.4209,507.000000	
53.4505,493.000000	
53.4801,510.000000	
53.5097,509.000000	
53.5393,500.000000	
53.5689,561.000000	
53.5985,562.000000	
53.6281,495.000000	
53.6577,516.000000	
53.6874,523.000000	
53.7170,573.000000	
53.7466,572.000000	
53.7762,613.000000	
53.8058,662.000000	
53.8354,684.000000	
53.8650,740.000000	
53.8946,825.000000	
53.9242,927.000000	
53.9539,901.000000	
53.9835,952.000000	
54.0131,923.000000	
54.0427,936.000000	
54.0723,1029.000000	
54.1019,1030.000000	
54.1315,1142.000000	
54.1611,1140.000000	
54.1907,1255.000000	
54.2204,1363.000000	
54.2500,1490.000000	
54.2796,1763.000000	
54.3092,1999.000000	
54.3388,2415.000000	
54.3684,2648.000000	
54.3980,3064.000000	
54.4276,3065.000000	
54.4572,2929.000000	
54.4869,2749.000000	
54.5165,2630.000000	
54.5461,2568.000000	
54.5757,2409.000000	
54.6053,2119.000000	
54.6349,1794.000000	
54.6645,1572.000000	
54.6941,1454.000000	
54.7237,1249.000000	
54.7534,1162.000000	
54.7830,1016.000000	
54.8126,915.000000	
54.8422,842.000000	
54.8718,811.000000	
54.9014,772.000000	
54.9310,758.000000	
54.9606,724.000000	
54.9902,694.000000	
55.0199,653.000000	
55.0495,659.000000	
55.0791,650.000000	
55.1087,640.000000	
55.1383,590.000000	
55.1679,679.000000	
55.1975,698.000000	
55.2271,702.000000	
55.2567,795.000000	
55.2864,863.000000	
55.3160,1002.000000	
55.3456,1129.000000	
55.3752,1195.000000	
55.4048,1233.000000	
55.4344,1156.000000	
55.4640,1084.000000	
55.4936,1056.000000	
55.5232,1012.000000	
55.5529,969.000000	
55.5825,865.000000	
55.6121,781.000000	
55.6417,763.000000	
55.6713,671.000000	
55.7009,681.000000	
55.7305,713.000000	
55.7601,652.000000	
55.7897,671.000000	
55.8194,750.000000	
55.8490,787.000000	
55.8786,808.000000	
55.9082,774.000000	
55.9378,742.000000	
55.9674,756.000000	
55.9970,871.000000	
56.0266,788.000000	
56.0562,785.000000	
56.0858,792.000000	
56.1155,841.000000	
56.1451,872.000000	
56.1747,862.000000	
56.2043,852.000000	
56.2339,816.000000	
56.2635,818.000000	
56.2931,840.000000	
56.3227,828.000000	
56.3523,822.000000	
56.3820,844.000000	
56.4116,828.000000	
56.4412,901.000000	
56.4708,988.000000	
56.5004,1206.000000	
56.5300,1367.000000	
56.5596,1596.000000	
56.5892,1819.000000	
56.6188,1705.000000	
56.6485,1518.000000	
56.6781,1424.000000	
56.7077,1321.000000	
56.7373,1334.000000	
56.7669,1161.000000	
56.7965,1039.000000	
56.8261,898.000000	
56.8557,770.000000	
56.8853,727.000000	
56.9150,660.000000	
56.9446,647.000000	
56.9742,585.000000	
57.0038,630.000000	
57.0334,616.000000	
57.0630,654.000000	
57.0926,723.000000	
57.1222,758.000000	
57.1518,801.000000	
57.1815,882.000000	
57.2111,1046.000000	
57.2407,1205.000000	
57.2703,1434.000000	
57.2999,1695.000000	
57.3295,2245.000000	
57.3591,2776.000000	
57.3887,3406.000000	
57.4183,3670.000000	
57.4480,3669.000000	
57.4776,3426.000000	
57.5072,3014.000000	
57.5368,2861.000000	
57.5664,2760.000000	
57.5960,2659.000000	
57.6256,2240.000000	
57.6552,1835.000000	
57.6848,1534.000000	
57.7145,1393.000000	
57.7441,1245.000000	
57.7737,1308.000000	
57.8033,1297.000000	
57.8329,1272.000000	
57.8625,1357.000000	
57.8921,1326.000000	
57.9217,1294.000000	
57.9513,1268.000000	
57.9810,1275.000000	
58.0106,1292.000000	
58.0402,1462.000000	
58.0698,1473.000000	
58.0994,1446.000000	
58.1290,1408.000000	
58.1586,1303.000000	
58.1882,1212.000000	
58.2178,1067.000000	
58.2475,1135.000000	
58.2771,1010.000000	
58.3067,930.000000	
58.3363,846.000000	
58.3659,804.000000	
58.3955,778.000000	
58.4251,734.000000	
58.4547,774.000000	
58.4843,858.000000	
58.5140,866.000000	
58.5436,978.000000	
58.5732,1118.000000	
58.6028,1072.000000	
58.6324,1028.000000	
58.6620,874.000000	
58.6916,854.000000	
58.7212,848.000000	
58.7508,817.000000	
58.7805,722.000000	
58.8101,643.000000	
58.8397,636.000000	
58.8693,577.000000	
58.8989,572.000000	
58.9285,498.000000	
58.9581,519.000000	
58.9877,559.000000	
59.0173,549.000000	
59.0469,534.000000	
59.0766,571.000000	
59.1062,562.000000	
59.1358,558.000000	
59.1654,566.000000	
59.1950,535.000000	
59.2246,611.000000	
59.2542,603.000000	
59.2838,557.000000	
59.3134,597.000000	
59.3431,578.000000	
59.3727,615.000000	
59.4023,621.000000	
59.4319,697.000000	
59.4615,663.000000	
59.4911,696.000000	
59.5207,647.000000	
59.5503,607.000000	
59.5799,615.000000	
59.6096,613.000000	
59.6392,612.000000	
59.6688,567.000000	
59.6984,520.000000	
59.7280,483.000000	
59.7576,513.000000	
59.7872,468.000000	
59.8168,484.000000	
59.8464,451.000000	
59.8761,536.000000	
59.9057,478.000000	
59.9353,531.000000	
59.9649,461.000000	
59.9945,476.000000	
60.0241,518.000000	
60.0537,485.000000	
60.0833,528.000000	
60.1129,563.000000	
60.1426,545.000000	
60.1722,594.000000	
60.2018,609.000000	
60.2314,582.000000	
60.2610,656.000000	
60.2906,642.000000	
60.3202,604.000000	
60.3498,649.000000	
60.3794,705.000000	
60.4091,760.000000	
60.4387,791.000000	
60.4683,848.000000	
60.4979,862.000000	
60.5275,918.000000	
60.5571,1142.000000	
60.5867,1314.000000	
60.6163,1706.000000	
60.6459,2064.000000	
60.6756,2531.000000	
60.7052,2547.000000	
60.7348,2416.000000	
60.7644,2111.000000	
60.7940,1860.000000	
60.8236,1987.000000	
60.8532,1938.000000	
60.8828,1843.000000	
60.9124,1836.000000	
60.9421,1685.000000	
60.9717,1569.000000	
61.0013,1735.000000	
61.0309,1637.000000	
61.0605,1674.000000	
61.0901,1427.000000	
61.1197,1270.000000	
61.1493,1368.000000	
61.1789,1351.000000	
61.2086,1329.000000	
61.2382,1321.000000	
61.2678,1318.000000	
61.2974,1369.000000	
61.3270,1366.000000	
61.3566,1456.000000	
61.3862,1570.000000	
61.4158,1556.000000	
61.4454,1450.000000	
61.4751,1410.000000	
61.5047,1327.000000	
61.5343,1254.000000	
61.5639,1272.000000	
61.5935,1169.000000	
61.6231,974.000000	
61.6527,961.000000	
61.6823,813.000000	
61.7119,746.000000	
61.7416,735.000000	
61.7712,662.000000	
61.8008,620.000000	
61.8304,600.000000	
61.8600,619.000000	
61.8896,577.000000	
61.9192,567.000000	
61.9488,595.000000	
61.9784,610.000000	
62.0080,617.000000	
62.0377,614.000000	
62.0673,603.000000	
62.0969,540.000000	
62.1265,569.000000	
62.1561,472.000000	
62.1857,495.000000	
62.2153,509.000000	
62.2449,486.000000	
62.2745,494.000000	
62.3042,502.000000	
62.3338,531.000000	
62.3634,536.000000	
62.3930,560.000000	
62.4226,630.000000	
62.4522,661.000000	
62.4818,675.000000	
62.5114,774.000000	
62.5410,697.000000	
62.5707,680.000000	
62.6003,702.000000	
62.6299,633.000000	
62.6595,684.000000	
62.6891,608.000000	
62.7187,646.000000	
62.7483,625.000000	
62.7779,602.000000	
62.8075,620.000000	
62.8372,584.000000	
62.8668,627.000000	
62.8964,695.000000	
62.9260,749.000000	
62.9556,802.000000	
62.9852,870.000000	
63.0148,951.000000	
63.0444,1047.000000	
63.0740,1223.000000	
63.1037,1153.000000	
63.1333,1043.000000	
63.1629,1026.000000	
63.1925,972.000000	
63.2221,981.000000	
63.2517,968.000000	
63.2813,911.000000	
63.3109,866.000000	
63.3405,764.000000	
63.3702,738.000000	
63.3998,748.000000	
63.4294,680.000000	
63.4590,681.000000	
63.4886,724.000000	
63.5182,737.000000	
63.5478,840.000000	
63.5774,860.000000	
63.6070,980.000000	
63.6367,1105.000000	
63.6663,1219.000000	
63.6959,1597.000000	
63.7255,2000.000000	
63.7551,2385.000000	
63.7847,2768.000000	
63.8143,2555.000000	
63.8439,2138.000000	
63.8735,1878.000000	
63.9032,1805.000000	
63.9328,1839.000000	
63.9624,2007.000000	
63.9920,1696.000000	
64.0216,1384.000000	
64.0512,1083.000000	
64.0808,968.000000	
64.1104,858.000000	
64.1400,829.000000	
64.1697,754.000000	
64.1993,716.000000	
64.2289,706.000000	
64.2585,732.000000	
64.2881,758.000000	
64.3177,674.000000	
64.3473,764.000000	
64.3769,824.000000	
64.4065,935.000000	
64.4362,1044.000000	
64.4658,1146.000000	
64.4954,1373.000000	
64.5250,1488.000000	
64.5546,1761.000000	
64.5842,2190.000000	
64.6138,2774.000000	
64.6434,3283.000000	
64.6730,3391.000000	
64.7027,3257.000000	
64.7323,2979.000000	
64.7619,2717.000000	
64.7915,2696.000000	
64.8211,2560.000000	
64.8507,2455.000000	
64.8803,2240.000000	
64.9099,1922.000000	
64.9395,1504.000000	
64.9691,1282.000000	
64.9988,1203.000000	
65.0284,1014.000000	
65.0580,926.000000	
65.0876,785.000000	
65.1172,769.000000	
65.1468,659.000000	
65.1764,711.000000	
65.2060,717.000000	
65.2356,698.000000	
65.2653,671.000000	
65.2949,665.000000	
65.3245,674.000000	
65.3541,715.000000	
65.3837,738.000000	
65.4133,716.000000	
65.4429,810.000000	
65.4725,856.000000	
65.5021,968.000000	
65.5318,1055.000000	
65.5614,1256.000000	
65.5910,1386.000000	
65.6206,1504.000000	
65.6502,1704.000000	
65.6798,1574.000000	
65.7094,1555.000000	
65.7390,1504.000000	
65.7686,1465.000000	
65.7983,1473.000000	
65.8279,1416.000000	
65.8575,1388.000000	
65.8871,1287.000000	
65.9167,1245.000000	
65.9463,1260.000000	
65.9759,1227.000000	
66.0055,1319.000000	
66.0351,1416.000000	
66.0648,1562.000000	
66.0944,1690.000000	
66.1240,1871.000000	
66.1536,1867.000000	
66.1832,1731.000000	
66.2128,1492.000000	
66.2424,1464.000000	
66.2720,1442.000000	
66.3016,1551.000000	
66.3313,1480.000000	
66.3609,1369.000000	
66.3905,1304.000000	
66.4201,1225.000000	
66.4497,1178.000000	
66.4793,1170.000000	
66.5089,1270.000000	
66.5385,1329.000000	
66.5681,1461.000000	
66.5978,1599.000000	
66.6274,1673.000000	
66.6570,1686.000000	
66.6866,1587.000000	
66.7162,1397.000000	
66.7458,1361.000000	
66.7754,1344.000000	
66.8050,1352.000000	
66.8346,1301.000000	
66.8643,1157.000000	
66.8939,1051.000000	
66.9235,927.000000	
66.9531,852.000000	
66.9827,809.000000	
67.0123,704.000000	
67.0419,670.000000	
67.0715,625.000000	
67.1011,565.000000	
67.1308,579.000000	
67.1604,579.000000	
67.1900,553.000000	
67.2196,538.000000	
67.2492,525.000000	
67.2788,505.000000	
67.3084,507.000000	
67.3380,511.000000	
67.3676,494.000000	
67.3973,474.000000	
67.4269,530.000000	
67.4565,503.000000	
67.4861,543.000000	
67.5157,546.000000	
67.5453,568.000000	
67.5749,565.000000	
67.6045,563.000000	
67.6341,570.000000	
67.6638,641.000000	
67.6934,673.000000	
67.7230,785.000000	
67.7526,787.000000	
67.7822,801.000000	
67.8118,752.000000	
67.8414,835.000000	
67.8710,720.000000	
67.9006,749.000000	
67.9302,770.000000	
67.9599,719.000000	
67.9895,758.000000	
68.0191,681.000000	
68.0487,658.000000	
68.0783,670.000000	
68.1079,576.000000	
68.1375,607.000000	
68.1671,560.000000	
68.1967,560.000000	
68.2264,543.000000	
68.2560,567.000000	
68.2856,516.000000	
68.3152,478.000000	
68.3448,499.000000	
68.3744,461.000000	
68.4040,511.000000	
68.4336,486.000000	
68.4632,522.000000	
68.4929,519.000000	
68.5225,572.000000	
68.5521,582.000000	
68.5817,514.000000	
68.6113,568.000000	
68.6409,597.000000	
68.6705,692.000000	
68.7001,724.000000	
68.7297,816.000000	
68.7594,903.000000	
68.7890,1000.000000	
68.8186,1129.000000	
68.8482,1156.000000	
68.8778,1200.000000	
68.9074,1218.000000	
68.9370,1102.000000	
68.9666,1077.000000	
68.9962,1151.000000	
69.0259,1215.000000	
69.0555,1164.000000	
69.0851,1065.000000	
69.1147,1128.000000	
69.1443,1049.000000	
69.1739,1060.000000	
69.2035,1059.000000	
69.2331,1028.000000	
69.2627,1021.000000	
69.2924,970.000000	
69.3220,886.000000	
69.3516,890.000000	
69.3812,807.000000	
69.4108,790.000000	
69.4404,758.000000	
69.4700,804.000000	
69.4996,673.000000	
69.5292,719.000000	
69.5589,575.000000	
69.5885,577.000000	
69.6181,602.000000	
69.6477,605.000000	
69.6773,536.000000	
69.7069,580.000000	
69.7365,539.000000	
69.7661,627.000000	
69.7957,610.000000	
69.8254,542.000000	
69.8550,577.000000	
69.8846,564.000000	
69.9142,550.000000	
69.9438,544.000000	
69.9734,577.000000	
70.0030,580.000000	
70.0326,640.000000	
70.0622,615.000000	
70.0919,614.000000	
70.1215,658.000000	
70.1511,704.000000	
70.1807,828.000000	
70.2103,868.000000	
70.2399,889.000000	
70.2695,1020.000000	
70.2991,998.000000	
70.3287,911.000000	
70.3584,954.000000	
70.3880,832.000000	
70.4176,913.000000	
70.4472,835.000000	
70.4768,845.000000	
70.5064,881.000000	
70.5360,802.000000	
70.5656,791.000000	
70.5952,855.000000	
70.6249,930.000000	
70.6545,846.000000	
70.6841,927.000000	
70.7137,865.000000	
70.7433,838.000000	
70.7729,711.000000	
70.8025,709.000000	
70.8321,714.000000	
70.8617,724.000000	
70.8913,754.000000	
70.9210,750.000000	
70.9506,669.000000	
70.9802,705.000000	
71.0098,688.000000	
71.0394,672.000000	
71.0690,750.000000	
71.0986,734.000000	
71.1282,723.000000	
71.1578,671.000000	
71.1875,683.000000	
71.2171,668.000000	
71.2467,680.000000	
71.2763,655.000000	
71.3059,679.000000	
71.3355,660.000000	
71.3651,680.000000	
71.3947,655.000000	
71.4243,701.000000	
71.4540,704.000000	
71.4836,750.000000	
71.5132,835.000000	
71.5428,851.000000	
71.5724,925.000000	
71.6020,935.000000	
71.6316,851.000000	
71.6612,820.000000	
71.6908,801.000000	
71.7205,836.000000	
71.7501,802.000000	
71.7797,772.000000	
71.8093,689.000000	
71.8389,668.000000	
71.8685,627.000000	
71.8981,611.000000	
71.9277,557.000000	
71.9573,554.000000	
71.9870,560.000000	
72.0166,565.000000	
72.0462,509.000000	
72.0758,486.000000	
72.1054,487.000000	
72.1350,489.000000	
72.1646,462.000000	
72.1942,454.000000	
72.2238,429.000000	
72.2535,436.000000	
72.2831,415.000000	
72.3127,433.000000	
72.3423,406.000000	
72.3719,462.000000	
72.4015,423.000000	
72.4311,421.000000	
72.4607,447.000000	
72.4903,467.000000	
72.5200,509.000000	
72.5496,482.000000	
72.5792,519.000000	
72.6088,513.000000	
72.6384,621.000000	
72.6680,641.000000	
72.6976,664.000000	
72.7272,682.000000	
72.7568,701.000000	
72.7865,732.000000	
72.8161,928.000000	
72.8457,966.000000	
72.8753,1108.000000	
72.9049,1158.000000	
72.9345,1133.000000	
72.9641,1158.000000	
72.9937,1118.000000	
73.0233,956.000000	
73.0530,985.000000	
73.0826,1003.000000	
73.1122,904.000000	
73.1418,891.000000	
73.1714,823.000000	
73.2010,773.000000	
73.2306,712.000000	
73.2602,637.000000	
73.2898,590.000000	
73.3195,561.000000	
73.3491,519.000000	
73.3787,500.000000	
73.4083,504.000000	
73.4379,433.000000	
73.4675,428.000000	
73.4971,457.000000	
73.5267,438.000000	
73.5563,469.000000	
73.5860,478.000000	
73.6156,517.000000	
73.6452,556.000000	
73.6748,567.000000	
73.7044,583.000000	
73.7340,602.000000	
73.7636,541.000000	
73.7932,528.000000	
73.8228,475.000000	
73.8524,448.000000	
73.8821,458.000000	
73.9117,467.000000	
73.9413,409.000000	
73.9709,464.000000	
74.0005,436.000000	
74.0301,391.000000	
74.0597,411.000000	
74.0893,413.000000	
74.1189,395.000000	
74.1486,419.000000	
74.1782,394.000000	
74.2078,423.000000	
74.2374,418.000000	
74.2670,406.000000	
74.2966,411.000000	
74.3262,408.000000	
74.3558,401.000000	
74.3854,388.000000	
74.4151,386.000000	
74.4447,414.000000	
74.4743,385.000000	
74.5039,426.000000	
74.5335,427.000000	
74.5631,420.000000	
74.5927,373.000000	
74.6223,398.000000	
74.6519,378.000000	
74.6816,398.000000	
74.7112,378.000000	
74.7408,398.000000	
74.7704,403.000000	
74.8000,430.000000	
74.8296,392.000000	
74.8592,420.000000	
74.8888,398.000000	
74.9184,382.000000	
74.9481,368.000000	
74.9777,410.000000	
75.0073,366.000000	
75.0369,388.000000	
75.0665,371.000000	
75.0961,375.000000	
75.1257,365.000000	
75.1553,358.000000	
75.1849,346.000000	
75.2146,386.000000	
75.2442,320.000000	
75.2738,346.000000	
75.3034,341.000000	
75.3330,360.000000	
75.3626,392.000000	
75.3922,357.000000	
75.4218,372.000000	
75.4514,367.000000	
75.4811,366.000000	
75.5107,348.000000	
75.5403,422.000000	
75.5699,391.000000	
75.5995,410.000000	
75.6291,437.000000	
75.6587,445.000000	
75.6883,473.000000	
75.7179,444.000000	
75.7476,488.000000	
75.7772,517.000000	
75.8068,567.000000	
75.8364,527.000000	
75.8660,529.000000	
75.8956,604.000000	
75.9252,615.000000	
75.9548,566.000000	
75.9844,580.000000	
76.0141,607.000000	
76.0437,655.000000	
76.0733,653.000000	
76.1029,710.000000	
76.1325,791.000000	
76.1621,779.000000	
76.1917,846.000000	
76.2213,830.000000	
76.2509,913.000000	
76.2806,887.000000	
76.3102,900.000000	
76.3398,938.000000	
76.3694,839.000000	
76.3990,869.000000	
76.4286,857.000000	
76.4582,738.000000	
76.4878,763.000000	
76.5174,756.000000	
76.5471,732.000000	
76.5767,707.000000	
76.6063,675.000000	
76.6359,646.000000	
76.6655,595.000000	
76.6951,527.000000	
76.7247,529.000000	
76.7543,525.000000	
76.7839,526.000000	
76.8135,448.000000	
76.8432,496.000000	
76.8728,493.000000	
76.9024,479.000000	
76.9320,518.000000	
76.9616,543.000000	
76.9912,547.000000	
77.0208,590.000000	
77.0504,656.000000	
77.0800,671.000000	
77.1097,818.000000	
77.1393,907.000000	
77.1689,992.000000	
77.1985,1024.000000	
77.2281,1021.000000	
77.2577,979.000000	
77.2873,950.000000	
77.3169,936.000000	
77.3465,956.000000	
77.3762,905.000000	
77.4058,922.000000	
77.4354,901.000000	
77.4650,904.000000	
77.4946,807.000000	
77.5242,772.000000	
77.5538,667.000000	
77.5834,666.000000	
77.6130,588.000000	
77.6427,586.000000	
77.6723,591.000000	
77.7019,506.000000	
77.7315,540.000000	
77.7611,518.000000	
77.7907,543.000000	
77.8203,508.000000	
77.8499,534.000000	
77.8795,477.000000	
77.9092,485.000000	
77.9388,451.000000	
77.9684,441.000000	
77.9980,438.000000	
78.0276,451.000000	
78.0572,435.000000	
78.0868,451.000000	
78.1164,452.000000	
78.1460,394.000000	
78.1757,411.000000	
78.2053,422.000000	
78.2349,419.000000	
78.2645,476.000000	
78.2941,460.000000	
78.3237,467.000000	
78.3533,442.000000	
78.3829,517.000000	
78.4125,528.000000	
78.4422,538.000000	
78.4718,579.000000	
78.5014,652.000000	
78.5310,709.000000	
78.5606,691.000000	
78.5902,759.000000	
78.6198,751.000000	
78.6494,749.000000	
78.6790,752.000000	
78.7087,777.000000	
78.7383,753.000000	
78.7679,725.000000	
78.7975,820.000000	
78.8271,785.000000	
78.8567,925.000000	
78.8863,1038.000000	
78.9159,1230.000000	
78.9455,1334.000000	
78.9752,1336.000000	
79.0048,1119.000000	
79.0344,981.000000	
79.0640,873.000000	
79.0936,822.000000	
79.1232,840.000000	
79.1528,842.000000	
79.1824,943.000000	
79.2120,915.000000	
79.2417,755.000000	
79.2713,660.000000	
79.3009,619.000000	
79.3305,576.000000	
79.3601,504.000000	
79.3897,495.000000	
79.4193,473.000000	
79.4489,462.000000	
79.4785,431.000000	
79.5082,433.000000	
79.5378,456.000000	
79.5674,451.000000	
79.5970,415.000000	
79.6266,437.000000	
79.6562,430.000000	
79.6858,435.000000	
79.7154,405.000000	
79.7450,428.000000	
79.7746,425.000000	
79.8043,470.000000	
79.8339,529.000000	
79.8635,491.000000	
79.8931,542.000000	
79.9227,498.000000	
79.9523,486.000000	
79.9819,533.000000	
80.0115,483.000000	
80.0411,525.000000	
80.0708,566.000000	
80.1004,594.000000	
80.1300,576.000000	
80.1596,625.000000	
80.1892,647.000000	
80.2188,644.000000	
80.2484,588.000000	
80.2780,624.000000	
80.3076,591.000000	
80.3373,638.000000	
80.3669,621.000000	
80.3965,668.000000	
80.4261,709.000000	
80.4557,769.000000	
80.4853,699.000000	
80.5149,701.000000	
80.5445,699.000000	
80.5741,684.000000	
80.6038,694.000000	
80.6334,682.000000	
80.6630,648.000000	
80.6926,683.000000	
80.7222,661.000000	
80.7518,691.000000	
80.7814,746.000000	
80.8110,635.000000	
80.8406,663.000000	
80.8703,670.000000	
80.8999,695.000000	
80.9295,716.000000	
80.9591,722.000000	
80.9887,735.000000	
81.0183,775.000000	
81.0479,673.000000	
81.0775,660.000000	
81.1071,619.000000	
81.1368,660.000000	
81.1664,685.000000	
81.1960,666.000000	
81.2256,656.000000	
81.2552,663.000000	
81.2848,662.000000	
81.3144,690.000000	
81.3440,701.000000	
81.3736,748.000000	
81.4033,815.000000	
81.4329,889.000000	
81.4625,1002.000000	
81.4921,1048.000000	
81.5217,1198.000000	
81.5513,1262.000000	
81.5809,1205.000000	
81.6105,1262.000000	
81.6401,1167.000000	
81.6698,1135.000000	
81.6994,1120.000000	
81.7290,996.000000	
81.7586,999.000000	
81.7882,1039.000000	
81.8178,973.000000	
81.8474,898.000000	
81.8770,769.000000	
81.9066,823.000000	
81.9363,760.000000	
81.9659,773.000000	
81.9955,647.000000	
82.0251,682.000000	
82.0547,652.000000	
82.0843,638.000000	
82.1139,575.000000	
82.1435,573.000000	
82.1731,579.000000	
82.2028,516.000000	
82.2324,551.000000	
82.2620,501.000000	
82.2916,536.000000	
82.3212,485.000000	
82.3508,462.000000	
82.3804,409.000000	
82.4100,416.000000	
82.4396,435.000000	
82.4693,399.000000	
82.4989,387.000000	
82.5285,412.000000	
82.5581,445.000000	
82.5877,373.000000	
82.6173,429.000000	
82.6469,421.000000	
82.6765,423.000000	
82.7061,424.000000	
82.7357,442.000000	
82.7654,426.000000	
82.7950,432.000000	
82.8246,406.000000	
82.8542,391.000000	
82.8838,423.000000	
82.9134,365.000000	
82.9430,378.000000	
82.9726,427.000000	
83.0022,387.000000	
83.0319,397.000000	
83.0615,382.000000	
83.0911,377.000000	
83.1207,391.000000	
83.1503,382.000000	
83.1799,433.000000	
83.2095,434.000000	
83.2391,405.000000	
83.2687,421.000000	
83.2984,442.000000	
83.3280,442.000000	
83.3576,464.000000	
83.3872,492.000000	
83.4168,498.000000	
83.4464,555.000000	
83.4760,576.000000	
83.5056,600.000000	
83.5352,603.000000	
83.5649,741.000000	
83.5945,753.000000	
83.6241,835.000000	
83.6537,896.000000	
83.6833,983.000000	
83.7129,1054.000000	
83.7425,1229.000000	
83.7721,1356.000000	
83.8017,1406.000000	
83.8314,1428.000000	
83.8610,1343.000000	
83.8906,1264.000000	
83.9202,1209.000000	
83.9498,1144.000000	
83.9794,1101.000000	
84.0090,1110.000000	
84.0386,1092.000000	
84.0682,1051.000000	
84.0979,1006.000000	
84.1275,981.000000	
84.1571,856.000000	
84.1867,828.000000	
84.2163,715.000000	
84.2459,716.000000	
84.2755,673.000000	
84.3051,658.000000	
84.3347,633.000000	
84.3644,628.000000	
84.3940,622.000000	
84.4236,684.000000	
84.4532,646.000000	
84.4828,688.000000	
84.5124,705.000000	
84.5420,683.000000	
84.5716,692.000000	
84.6012,754.000000	
84.6309,674.000000	
84.6605,751.000000	
84.6901,705.000000	
84.7197,747.000000	
84.7493,829.000000	
84.7789,947.000000	
84.8085,935.000000	
84.8381,909.000000	
84.8677,983.000000	
84.8974,889.000000	
84.9270,898.000000	
84.9566,777.000000	
84.9862,719.000000	
85.0158,691.000000	
85.0454,700.000000	
85.0750,674.000000	
85.1046,690.000000	
85.1342,678.000000	
85.1639,617.000000	
85.1935,554.000000	
85.2231,526.000000	
85.2527,460.000000	
85.2823,459.000000	
85.3119,432.000000	
85.3415,402.000000	
85.3711,380.000000	
85.4007,357.000000	
85.4304,355.000000	
85.4600,382.000000	
85.4896,342.000000	
85.5192,387.000000	
85.5488,359.000000	
85.5784,315.000000	
85.6080,333.000000	
85.6376,340.000000	
85.6672,309.000000	
85.6968,349.000000	
85.7265,304.000000	
85.7561,324.000000	
85.7857,292.000000	
85.8153,288.000000	
85.8449,318.000000	
85.8745,331.000000	
85.9041,359.000000	
85.9337,307.000000	
85.9633,306.000000	
85.9930,311.000000	
86.0226,321.000000	
86.0522,310.000000	
86.0818,367.000000	
86.1114,328.000000	
86.1410,335.000000	
86.1706,311.000000	
86.2002,353.000000	
86.2298,339.000000	
86.2595,376.000000	
86.2891,377.000000	
86.3187,404.000000	
86.3483,400.000000	
86.3779,440.000000	
86.4075,451.000000	
86.4371,483.000000	
86.4667,504.000000	
86.4963,513.000000	
86.5260,555.000000	
86.5556,594.000000	
86.5852,611.000000	
86.6148,551.000000	
86.6444,588.000000	
86.6740,575.000000	
86.7036,565.000000	
86.7332,540.000000	
86.7628,584.000000	
86.7925,563.000000	
86.8221,575.000000	
86.8517,545.000000	
86.8813,586.000000	
86.9109,494.000000	
86.9405,517.000000	
86.9701,508.000000	
86.9997,517.000000	
87.0293,470.000000	
87.0590,462.000000	
87.0886,435.000000	
87.1182,429.000000	
87.1478,386.000000	
87.1774,414.000000	
87.2070,377.000000	
87.2366,362.000000	
87.2662,376.000000	
87.2958,342.000000	
87.3255,362.000000	
87.3551,326.000000	
87.3847,380.000000	
87.4143,324.000000	
87.4439,329.000000	
87.4735,310.000000	
87.5031,347.000000	
87.5327,318.000000	
87.5623,348.000000	
87.5920,332.000000	
87.6216,342.000000	
87.6512,331.000000	
87.6808,348.000000	
87.7104,353.000000	
87.7400,355.000000	
87.7696,349.000000	
87.7992,367.000000	
87.8288,332.000000	
87.8585,373.000000	
87.8881,364.000000	
87.9177,382.000000	
87.9473,360.000000	
87.9769,361.000000	
88.0065,378.000000	
88.0361,380.000000	
88.0657,331.000000	
88.0953,352.000000	
88.1250,357.000000	
88.1546,341.000000	
88.1842,353.000000	
88.2138,364.000000	
88.2434,357.000000	
88.2730,344.000000	
88.3026,365.000000	
88.3322,346.000000	
88.3618,303.000000	
88.3915,303.000000	
88.4211,314.000000	
88.4507,317.000000	
88.4803,308.000000	
88.5099,322.000000	
88.5395,316.000000	
88.5691,311.000000	
88.5987,303.000000	
88.6283,290.000000	
88.6579,289.000000	
88.6876,278.000000	
88.7172,301.000000	
88.7468,270.000000	
88.7764,313.000000	
88.8060,287.000000	
88.8356,318.000000	
88.8652,278.000000	
88.8948,297.000000	
88.9244,292.000000	
88.9541,300.000000	
88.9837,285.000000	
89.0133,287.000000	
89.0429,328.000000	
89.0725,299.000000	
89.1021,263.000000	
89.1317,314.000000	
89.1613,306.000000	
89.1909,291.000000	
89.2206,307.000000	
89.2502,305.000000	
89.2798,319.000000	
89.3094,305.000000	
89.3390,312.000000	
89.3686,331.000000	
89.3982,347.000000	
89.4278,343.000000	
89.4574,390.000000	
89.4871,381.000000	
89.5167,412.000000	
89.5463,416.000000	
89.5759,427.000000	
89.6055,370.000000	
89.6351,349.000000	
89.6647,385.000000	
89.6943,355.000000	
89.7239,393.000000	
89.7536,421.000000	
89.7832,405.000000	
89.8128,364.000000	
89.8424,360.000000	
89.8720,378.000000	
89.9016,346.000000	
89.9312,333.000000	
89.9608,332.000000	
89.9904,323.000000	