4.0001,356.91254624958
4.0297,331.026236125126
4.0593,328.015141318977
4.0889,313.141271442987
4.1185,310.04137235116
4.1482,353.363391655451
4.1778,337.32021527077
4.2074,297.928355196771
4.237,284.354306864065
4.2666,270.442650521359
4.2962,283.496131853347
4.3258,295.515640766902
4.3554,281.666218034993
4.385,257.219307097208
4.4147,268.352842246889
4.4443,276.56931359354
4.4739,258.163807601749
4.5035,258.874873864783
4.5331,243.132570659488
4.5627,236.425832492432
4.5923,262.815001681803
4.6219,261.317631224764
4.6515,239.9263370333
4.6812,228.847628657921
4.7108,249.868102288021
4.7404,234.770265724857
4.77,247.439286915573
4.7996,233.73259334006
4.8292,246.304172274563
4.8588,221.309788092836
4.8884,204.720484359233
4.918,232.961641991924
4.9477,220.275142953246
4.9773,218.875882946519
5.0069,215.512786002692
5.0365,227.144635048772
5.0661,205.696266397578
5.0957,211.449192462988
5.1253,203.598385469223
5.1549,221.557349478641
5.1845,208.921601615074
5.2142,208.535822401615
5.2438,209.84090144635
5.2734,203.305518169583
5.303,213.654894046418
5.3326,206.890682811975
5.3622,195.115035317861
5.3918,204.475100942126
5.4214,202.923309788093
5.451,204.432896064581
5.4807,223.635262449529
5.5103,207.04608139926
5.5399,206.007736293306
5.5695,200.620457604307
5.5991,208.517658930373
5.6287,215.732593340061
5.6583,196.598923283984
5.6879,173.051799529095
5.7175,168
5.7471,179.578061911171
5.7768,194.564076690212
5.8064,188.03464513959
5.836,204.817019845274
5.8656,182.193135935397
5.8952,170.738647830474
5.9248,167.751765893037
5.9544,193.085127860027
5.984,196.071981163808
6.0136,181.477295660948
6.0433,181.415208613728
6.0729,180.805247225025
6.1025,170.546249579549
6.1321,177.846231493943
6.1617,180.562394887319
6.1913,172.855701311806
6.2209,187.757402422611
6.2505,185.821728893374
6.2801,181.298351833165
6.3098,169.78600269179
6.3394,173.359233097881
6.369,189.460141271443
6.3986,179.867137571477
6.4282,185.990578734859
6.4578,196.076690211907
6.4874,189.899091826438
6.517,194.051144010767
6.5466,188.666666666666
6.5763,175.346451395896
6.6059,169.676985195155
6.6355,160.455768583922
6.6651,165.793138244198
6.6947,173.594885598923
6.7243,176.933400605449
6.7539,178.640094180962
6.7835,174.548452220727
6.8131,173.263370332997
6.8428,187.874873864783
6.8724,194.121089808274
6.902,176.202220726783
6.9316,179.593676421124
6.9612,183.091826437942
6.9908,190.359017496635
7.0204,184.897746384124
7.05,171.593340060545
7.0796,176.948519515478
7.1093,166.320551631349
7.1389,169.191725529768
7.1685,174.302826379543
7.1981,160.507568113018
7.2277,159.363942145981
7.2573,161.128196500673
7.2869,162.420787083754
7.3165,159.342415068954
7.3461,162.862045760431
7.3758,163.953582240161
7.4054,165.007063572149
7.435,171.207870837538
7.4646,189.981157469717
7.4942,199.107971745711
7.5238,185.833837874202
7.5534,174.790040376851
7.583,176.246215943491
7.6126,180
7.6423,185.781292059219
7.6719,177.966027581567
7.7015,189.264379414733
7.7311,187.924629878869
7.7607,179.223007063572
7.7903,192.504204507232
7.8199,192
7.8495,184.554658594013
7.8791,189.794147325934
7.9088,198.567103935419
7.9384,186.734522207268
7.968,181.856037672385
7.9976,186
8.0272,196.415208613729
8.0568,202.8385469223
8.0864,201.648503195425
8.116,193.181022880216
8.1456,192.062563067608
8.1753,206.356542213253
8.2049,203.353633916554
8.2345,211.258324924319
8.2641,207.491086444669
8.2937,198.699528936743
8.3233,209.473932055163
8.3529,221.737638748739
8.3825,214.123149394347
8.4121,207.701311806256
8.4418,224.431886982846
8.4714,220.657248570467
8.501,223.822341857335
8.5306,215.815338042381
8.5602,210.547258661285
8.5898,208.582099596232
8.6194,229.872182980155
8.649,236.799192734611
8.6786,234.42934051144
8.7082,246.032626976119
8.7379,235.713420787084
8.7675,241.421265141319
8.7971,265.571812983519
8.8267,270.05549949546
8.8563,248.631224764468
8.8859,232.722166162126
8.9155,223.332996972755
8.9451,241.779011099899
8.9747,245.511440107671
9.0044,228.576185671039
9.034,251.252270433905
9.0636,269.650067294751
9.0932,267.333333333333
9.1228,267.013118062563
9.1524,270.195154777927
9.182,272.345105953582
9.2116,248.624957954928
9.2412,248.85262449529
9.2709,268.155062226707
9.3005,263.429868819374
9.3301,292.747308209959
9.3597,298.242852337706
9.3893,279.706020854356
9.4189,278.420592193809
9.4485,279.855701311806
9.4781,292.623948873192
9.5077,311.429196098218
9.5374,312.515477792733
9.567,294.784056508577
9.5966,315.651866801211
9.6262,307.314939434724
9.6558,318.525058863101
9.6854,297.963000336361
9.715,310.77523553163
9.7446,358.628657921291
9.7742,328.163134880592
9.8039,320.227456258412
9.8335,338.027245206861
9.8631,329.43760511268
9.8927,352.403095558546
9.9223,343.639757820383
9.9519,340.566094853683
9.9815,367.98620921628
10.0111,357.421938088829
10.0407,353.414732593341
10.0704,336.734611503531
10.1,359.030955585464
10.1296,376.974436596031
10.1592,380.366296670031
10.1888,359.301144010767
10.2184,354.954591321897
10.248,368.180289270098
10.2776,363.896702557201
10.3072,346.359569458459
10.3369,375.803901782711
10.3665,372.331763122477
10.3961,382.537840565086
10.4257,376.264715775311
10.4553,387.305518169583
10.4849,411.598721829802
10.5145,412.67507568113
10.5441,395.758493104608
10.5737,384.059892328399
10.6034,430.379751093172
10.633,408.364951227715
10.6626,452.166890982504
10.6922,417.030272452069
10.7218,402.643794147326
10.7514,402.860026917901
10.781,424.338042381433
10.8106,417.940464177598
10.8402,412.150067294751
10.8699,441.00908173562
10.8995,446.2351160444
10.9291,410.446837146703
10.9587,405
10.9883,406.926337033299
11.0179,428.793810965355
11.0475,437.174629878869
11.0771,427.070972082072
11.1067,426.867810292634
11.1364,412.640309555855
11.166,434.70736629667
11.1956,414.542549613185
11.2252,407.898048452221
11.2548,424.829128826101
11.2844,439.668012108981
11.314,412.161170928668
11.3436,439.460141271443
11.3732,424.778674739321
11.4029,417.663189771198
11.4325,406.973427514295
11.4621,405.889001009082
11.4917,400.839502018842
11.5213,392.275815674403
11.5509,412.141271442986
11.5805,427.010090817356
11.6101,429.025572005384
11.6397,466.872139973082
11.6693,467
11.699,422.393541876893
11.7286,430.884925975774
11.7582,389.720484359232
11.7878,433.031281533806
11.8174,471.028263795424
11.847,431.257315842582
11.8766,424.205852674067
11.9062,404.767160161508
11.9358,421.231079717457
11.9655,414.349815001682
11.9951,422.56998654105
12.0247,456.175243861419
12.0543,405.164480322905
12.0839,471.494786411031
12.1135,411.480820995964
12.1431,395.831483350152
12.1727,411.674066599395
12.2023,403.777254374159
12.232,421.425832492432
12.2616,405.578540195088
12.2912,411.302826379542
12.3208,400.189371005718
12.3504,433.35721493441
12.38,402.797442799461
12.4096,416.018836192398
12.4392,407.303733602422
12.4688,449.476783310903
12.4985,428.410696266398
12.5281,432.055499495459
12.5577,414.564939434725
12.5873,438.205852674066
12.6169,395.934746047764
12.6465,368.245206861756
12.6761,422.666890982503
12.7057,414.016145307769
12.7353,391.403969054827
12.765,411.835800807537
12.7946,420.234779683821
12.8242,430.268415741675
12.8538,400.13728129206
12.8834,377.316515304406
12.913,409.681466532124
12.9426,419.477119784657
12.9722,405.214934409686
13.0018,394.646821392532
13.0315,411.774562584118
13.0611,382.709048099562
13.0907,414.572485704676
13.1203,394.280524722503
13.1499,421.362382234186
13.1795,404.565758493104
13.2091,379.819710729903
13.2387,416.675975773891
13.2683,416.26942482341
13.298,394.255297679111
13.3276,395.992261103634
13.3572,394.136898755466
13.3868,406.060208543558
13.4164,380.962987886944
13.446,366.681130171544
13.4756,378.598385469223
13.5052,389.010767160161
13.5348,388.011772620249
13.5645,387.746047763202
13.5941,388
13.6237,412.342078708375
13.6533,404.134880591994
13.6829,389.253279515641
13.7125,384.550471063257
13.7421,385.440968718466
13.7717,363.084426505213
13.8013,369.663526244952
13.831,364.622939791456
13.8606,362.826774302052
13.8902,383.671601615075
13.9198,387.810292633703
13.9494,366.570467541205
13.979,351.792059219381
14.0086,356.540531449714
14.0382,377.028254288597
14.0678,370.783310901749
14.0975,362.647830474268
14.1271,390.211907164482
14.1567,370.621803499327
14.1863,353.336696939119
14.2159,345.092835519677
14.2455,350.163807601749
14.2751,376.463324360699
14.3047,386.707702657249
14.3343,378.298688193744
14.364,382.973755047106
14.3936,382.906155398587
14.4232,388.220652539523
14.4528,382.948855989233
14.4824,405.701648166834
14.512,373.433905146315
14.5416,374.385935397041
14.5712,372.609149007737
14.6008,368.101917255298
14.6304,347.484522207268
14.6601,346.247225025226
14.6897,343.857719475277
14.7193,330.848974100235
14.7489,349.786675639301
14.7785,355.646485031955
14.8081,362.925327951564
14.8377,368.391655450875
14.8673,366.143625967037
14.8969,364.162798520013
14.9266,365.399730820996
14.9562,378.685502859066
14.9858,355.750756811301
15.0154,349.276581426649
15.045,340.36663303061
15.0746,330.814328960645
15.1042,335.753701211305
15.1338,339.441977800202
15.1634,327.428859737639
15.1931,319.974427994617
15.2227,329.109653548604
15.2523,341.983854692231
15.2819,337.995963673057
15.3115,329.630215343203
15.3411,332.979482004709
15.3707,334.023545240498
15.4003,324.46130551817
15.4299,322.452068617558
15.4596,322.567103935419
15.4892,325.798788694482
15.5188,342.416414396233
15.5484,349.385805583586
15.578,347.725773889637
15.6076,335.346115035318
15.6372,341.185334678775
15.6668,341.53263795424
15.6964,320.375042045072
15.7261,325.152707702658
15.7557,333.343087790111
15.7853,332.170255720054
15.8149,337.79482004709
15.8445,347.109317188025
15.8741,351.598923283983
15.9037,331.178607467205
15.9333,311.136898755466
15.9629,320.255720053836
15.9926,313.527749747729
16.0222,292.754120417087
16.0518,320.805518169582
16.0814,330.864783047428
16.111,308.818701648167
16.1406,325.394347240917
16.1702,331.962327615204
16.1998,314.345105953582
16.2294,321.253701211306
16.2591,318.174571140262
16.2887,300.642448705013
16.3183,295.263370332998
16.3479,323.508411843878
16.3775,307.866801210899
16.4071,327.099899091827
16.4367,334.661843876177
16.4663,304.875546585941
16.4959,302.717457114027
16.5256,319.953903095559
16.5552,297.182643794148
16.5848,302.433905146316
16.6144,322.343539703903
16.644,317.909182643793
16.6736,309.005045408678
16.7032,324.230148048454
16.7328,332.710057181298
16.7624,291.133198789102
16.7921,287.497140935082
16.8217,305.240915208613
16.8513,307.672048435922
16.8809,293.740329633368
16.9105,328.570659488558
16.9401,311.500504540867
16.9697,319.339051463168
16.9993,306.298115746972
17.0289,287.127480659267
17.0586,283.148671375715
17.0882,297.203230148048
17.1178,302.164480322906
17.1474,279.742684157417
17.177,293.923283983849
17.2066,292.325260679449
17.2362,286.876219307096
17.2658,271.768506056528
17.2954,303.756811301716
17.3251,299.718466195761
17.3547,282.234443323243
17.3843,294.248317631224
17.4139,312.36865119408
17.4435,296.661957618568
17.4731,316.496971736204
17.5027,293.416750756811
17.5323,307.130844265052
17.5619,295.425639300135
17.5915,309.25126135217
17.6212,287.78809283552
17.6508,284.301144010767
17.6804,279.69794820047
17.71,301.004372687521
17.7396,305.377187079408
17.7692,330.082744702322
17.7988,285.763874873865
17.8284,280.367305751765
17.858,293.248990578733
17.8877,268.900100908174
17.9173,306.694248234107
17.9469,326.765814266488
17.9765,293.133871510259
18.0061,305.917255297679
18.0357,313.979138627187
18.0653,301.183652875883
18.0949,293.351833165153
18.1245,309.282637954239
18.1542,324.703329969728
18.1838,342.841574167506
18.2134,398.662180349932
18.243,476.615539858728
18.2726,709.376051126808
18.3022,694.520188425304
18.3318,596.935082408336
18.3614,428.823410696268
18.391,363.569458459469
18.4207,351.893674293407
18.4503,284.718129835183
18.4799,293.062563067609
18.5095,310.685733512786
18.5391,294.677093844603
18.5687,262.452404978137
18.5983,277.432368775235
18.6279,271.770265724857
18.6575,279.982845610495
18.6872,267.860026917901
18.7168,278.864783047427
18.7464,276.051463168516
18.776,261.411170928667
18.8056,254.028590649176
18.8352,288.394550958628
18.8648,276.63134880592
18.8944,268.332436069987
18.924,252.660948536832
18.9537,245.393205516315
18.9833,281.676985195155
19.0129,271.858728557013
19.0425,267.501513622603
19.0721,287.960969044414
19.1017,285.938109653549
19.1313,281.833501513623
19.1609,267.080753701211
19.1905,279.026908846283
19.2202,288.966363942146
19.2498,269.053817692566
19.2794,244.168236877524
19.309,275.644803229062
19.3386,253.355869492095
19.3682,253.980484522207
19.3978,242.286579212917
19.4274,255.604439959637
19.457,250.19576185671
19.4867,242.266487213998
19.5163,266.058190380087
19.5459,287.117053481332
19.5755,265.106325706595
19.6051,250.706357214935
19.6347,246.219307097208
19.6643,262.940107671601
19.6939,267.747056844938
19.7235,235.366296670029
19.7532,249.770524899057
19.7828,256.564076690212
19.8124,276.382441977801
19.842,249.513795423957
19.8716,258.88933736966
19.9012,273.652875882946
19.9308,251.448705011773
19.9604,269.740242261103
19.99,252.256979482004
20.0197,267.928018836192
20.0493,274.461641991925
20.0789,267.008072653885
20.1085,273.068953918601
20.1381,266.963660834454
20.1677,235.367642112344
20.1973,222.291624621594
20.2269,250.469717362045
20.2565,288.634712411704
20.2862,277.633030608813
20.3158,315.294751009421
20.3454,281.055499495456
20.375,286.729566094853
20.4046,261.974427994616
20.4342,275.485031954254
20.4638,282.34342415069
20.4934,263.875882946518
20.523,255.863055181696
20.5526,257.469223007064
20.5823,260.466195761857
20.6119,273.269515477793
20.6415,266.236125126135
20.6711,272.092835519677
20.7007,281.246635262449
20.7303,247.761520349815
20.7599,223.866464850319
20.7895,286.561238223422
20.8191,289.026236125127
20.8488,281.851664984864
20.8784,276.302153432032
20.908,281.229397914564
20.9376,259.770938446013
20.9672,255.309788092836
20.9968,264.42395693136
21.0264,270.04608139926
21.056,264.185671039354
21.0856,262.753028263795
21.1153,256.231079717457
21.1449,242.784056508578
21.1745,251.641318977119
21.2041,258.217961654894
21.2337,254.590312815338
21.2633,255.192462987887
21.2929,247.281533804239
21.3225,236.778338378742
21.3521,234.718034993271
21.3818,232.848637739657
21.4114,250.531449714095
21.441,234.615746971737
21.4706,254.582240161453
21.5002,244.601076353851
21.5298,237.086781029263
21.5594,257.360699865409
21.589,259.128153380424
21.6186,256.682811974437
21.6483,233.128869448184
21.6779,211.155734947864
21.7075,243.7100571813
21.7371,280.069650067295
21.7667,318.259334006055
21.7963,301.290615539861
21.8259,275.809555854643
21.8555,259.91254624958
21.8851,239.747729566094
21.9148,244.293741588156
21.9444,264.498486377397
21.974,263.062226707029
22.0036,263.072317524386
22.0332,252.772543741589
22.0628,241.246215943492
22.0924,250.182643794148
22.122,236.635935397039
22.1516,232.579885637404
22.1813,236.164480322906
22.2109,243.50740242261
22.2405,243.56912209889
22.2701,235.207534476959
22.2997,247.467025572004
22.3293,250.912209889
22.3589,254.794147325933
22.3885,255.761103633916
22.4181,244.487722838883
22.4478,230.923982509249
22.4774,237.026244952893
22.507,252.821392532794
22.5366,259.692230070636
22.5662,255.402959973091
22.5958,247.111372812921
22.6254,255.025899764548
22.655,280.407669021191
22.6846,273.376177658141
22.7143,257.083753784057
22.7439,258
22.7735,258.53331090175
22.8031,270.110998990918
22.8327,296.791120080727
22.8623,309.917900403769
22.8919,336.39724184326
22.9215,390.64480322906
22.9511,473.359017496636
22.9808,616.706693575518
23.0104,868.329969727534
23.04,1171.48200470905
23.0696,1267.05114401077
23.0992,1161.74133871511
23.1288,980.114026236126
23.1584,685.557200538365
23.188,452.05751765893
23.2176,396.362933064245
23.2473,375.884925975773
23.2769,336.908846283215
23.3065,318.757820383451
23.3361,309.951547779272
23.3657,306.273797510932
23.3953,308.099226370669
23.4249,295.845895020188
23.4545,286.419778002019
23.4841,310.379414732596
23.5137,327.499327052489
23.5434,319.432559704003
23.573,315.718129835184
23.6026,305.338042381432
23.6322,302.35666218035
23.6618,311.984863773966
23.6914,323.932391523713
23.721,333.847577388964
23.7506,359.741675075678
23.7802,393.991254624958
23.8099,406.139636608346
23.8395,430.616548940463
23.8691,462.164480322905
23.8987,517.536339165546
23.9283,613.270433905149
23.9579,766.346787756474
23.9875,1033.70827725436
24.0171,1547.55499495459
24.0467,2667.63572149338
24.0764,5314.78002018182
24.106,10829.3391655451
24.1356,15740.5983854692
24.1652,14186.5176589304
24.1948,10481.781292059
24.2244,6642.32088799195
24.254,2984.43356878579
24.2836,1594.2786002692
24.3132,1043.13992600067
24.3429,783.507904473609
24.3725,619.729475100946
24.4021,529.911200807266
24.4317,473.791120080728
24.4613,449.343203230148
24.4909,435.125126135215
24.5205,372.250252270435
24.5501,356.164199192464
24.5797,359.547258661285
24.6094,337.86175580222
24.639,326.743020517995
24.6686,322.668573351279
24.6982,285.645812310798
24.7278,289.931718802558
24.7574,315.874158815611
24.787,291.065926673393
24.8166,286.673057517659
24.8462,293.386944818304
24.8759,282.485368314833
24.9055,284.288261015809
24.9351,288.032301480484
24.9647,268.288261015809
24.9943,257.476286579213
25.0239,240.707604306864
25.0535,252.965354860412
25.0831,280.99764547595
25.1127,260.877901109989
25.1424,248.223418573351
25.172,240.474268415742
25.2016,238.417423477969
25.2312,250.790713324361
25.2608,250.205179952909
25.2904,254.614530776993
25.32,264.676985195156
25.3496,243.921627985201
25.3792,232.692230070636
25.4089,241.122476446837
25.4385,244.353178607467
25.4681,234.678102926337
25.4977,231.494616419917
25.5273,261.723847965019
25.5569,238.321560713085
25.5865,246.608344549125
25.6161,228.52774974773
25.6457,225.081735620585
25.6754,222.888664648504
25.705,237.227456258412
25.7346,231.165153044064
25.7642,249.733602421793
25.7938,211.67462987887
25.8234,216.785065590313
25.853,226.047090480997
25.8826,251.19078061911
25.9122,229.465186680121
25.9419,218.702320887992
25.9715,223.323687752355
26.0011,219.412378069291
26.0307,230.374369323915
26.0603,224.900067294751
26.0899,222.274470232088
26.1195,206.91490077363
26.1491,216.174234779684
26.1787,215.185733512787
26.2084,188.431886982842
26.238,237.766902119072
26.2676,234.193135935397
26.2972,224.692902791793
26.3268,234
26.3564,232.001345895021
26.386,204.107971745713
26.4156,255.374369323915
26.4452,245.098923283982
26.4748,267.524722502524
26.5045,281.050454086785
26.5341,325.197173620458
26.5637,282.264379414732
26.5933,347.317188025563
26.6229,389.386271870793
26.6525,365.418768920284
26.6821,338.605449041371
26.7117,315.194752774972
26.7413,252.924293405115
26.771,243.80659266734
26.8006,219.201816347125
26.8302,278.939455095864
26.8598,226.267496635261
26.8894,236.896400941809
26.919,212.344769593005
26.9486,246.375841184389
26.9782,212.776992936428
27.0078,287.927346115038
27.0375,204.398384925981
27.0671,247.51395896401
27.0967,202.727547931381
27.1263,230.758748317633
27.1559,193.775983854694
27.1855,208.170871173899
27.2151,212.787420114362
27.2447,174.345222072679
27.2743,179.507568113017
27.304,217.497477295658
27.3336,243.334454912518
27.3632,224.561385805584
27.3928,222.075344769593
27.4224,180.573351278602
27.452,216.398587285567
27.4816,233.678102926336
27.5112,226.829744279947
27.5408,199.799529095189
27.5705,198.804910864447
27.6001,181.930686406459
27.6297,213.079717457115
27.6593,210.772283888329
27.6889,216.199192462988
27.7185,220.525058863101
27.7481,217.492431886983
27.7777,232.705348133199
27.8073,222.841857335128
27.837,253.964009418098
27.8666,233.97006390851
27.8962,255.770524899058
27.9258,228.376387487387
27.9554,238.305751765893
27.985,261.309555854643
28.0146,251.529431550622
28.0442,252.35015136226
28.0738,272.169246298787
28.1035,313.462159434912
28.1331,280.422132526068
28.1627,295.072678331089
28.1923,282.78607467205
28.2219,274.923309788093
28.2515,248.860073999327
28.2811,230.897039030956
28.3107,245.656239488732
28.3403,250
28.37,253.189771197847
28.3996,250.827447023209
28.4292,229.492095526403
28.4588,237.339165545087
28.4884,248.023208879919
28.518,260.087790110999
28.5476,261.456258411844
28.5772,231.06458123108
28.6068,231.158425832493
28.6365,247.724091520862
28.6661,270.95391860074
28.6957,258.155398587286
28.7253,277.488559892328
28.7549,254.694248234109
28.7845,247.70501177262
28.8141,277.728557013122
28.8437,271.152422611038
28.8733,281.74907500841
28.903,280.727884291961
28.9326,288.123149394348
28.9622,313.564076690211
28.9918,316.284561049445
29.0214,335.308882907131
29.051,337.645812310798
29.0806,399.551631348806
29.1102,445.135262449528
29.1398,507.765893037336
29.1695,621.297679112002
29.1991,764.901413189773
29.2287,1018.51395896399
29.2583,1370.83148335018
29.2879,2037.46115035323
29.3175,3174.22005383572
29.3471,5409.66666666653
29.3767,9188.68045745072
29.4063,12467.5248990577
29.4359,11871.0625630674
29.4656,9954.9455095862
29.4952,7769.25302826395
29.5248,5111.38210561715
29.5544,3000.27480659263
29.584,1837.35800807538
29.6136,1274.00908173562
29.6432,937.315506222669
29.6728,722.934051144011
29.7024,607.393205516314
29.7321,554.609485368317
29.7617,477.558546433373
29.7913,450.408678102926
29.8209,477.75849310461
29.8505,548.27177934746
29.8801,520.780955585471
29.9097,445.791120080723
29.9393,380.315169862098
29.9689,322.146029609691
29.9986,289.010090817355
30.0282,288.835183316516
30.0578,291.979475100942
30.0874,278.167507568113
30.117,279.052135889675
30.1466,286
30.1762,255.903128153382
30.2058,246.377396569123
30.2354,249.768169582773
30.2651,246.287588294652
30.2947,249
30.3243,259.2445341406
30.3539,265.325033647375
30.3835,261.407669021191
30.4131,257.367978472923
30.4427,239.855989232839
30.4723,236.877901109991
30.5019,253.163471241171
30.5316,264.127860026917
30.5612,261.371342078708
30.5908,253.495795492768
30.6204,246.5
30.65,247.932727884293
30.6796,259.439959636731
30.7092,270.795423956932
30.7388,271.271779347461
30.7684,258.213588967373
30.7981,258.733512786003
30.8277,266.894382778338
30.8573,262.900100908173
30.8869,257.85940127817
30.9165,259.078734858681
30.9461,271.236797847293
30.9757,273.437941473259
31.0053,249.386608344549
31.0349,246.211234443322
31.0646,264.623612512614
31.0942,283.261103633916
31.1238,268.722166162127
31.1534,257.335015136227
31.183,281.553835800808
31.2126,287.950218634376
31.2422,282.406996300034
31.2718,281.385598923283
31.3014,301.860746720484
31.3311,313.338042381432
31.3607,355.457114026233
31.3903,422.751009421262
31.4199,493.093844601409
31.4495,551.437941473259
31.4791,525.823687752355
31.5087,494.349478641102
31.5383,475.803229061559
31.5679,430.253028263795
31.5976,430.118062563068
31.6272,408.059535822397
31.6568,400.129878869451
31.6864,495.790110998994
31.716,592.509249915912
31.7456,570.475100942132
31.7752,419.544904137239
31.8048,400.056508577195
31.8344,392.15275908479
31.8641,366.973763874874
31.8937,352.666666666668
31.9233,342.526740665992
31.9529,370.818640646029
31.9825,385.641103262698
32.0121,397.433905146316
32.0417,437.778936742932
32.0713,469.613521695258
32.1009,442.07769929364
32.1306,399.758075370122
32.1602,369.248906828118
32.1898,385.708375378406
32.2194,372.130888290713
32.249,368.001009081736
32.2786,363.562394887319
32.3082,370.261440107671
32.3378,378.544231416076
32.3674,371.515640766902
32.397,387.511268079381
32.4267,385.261776581427
32.4563,405.971072990248
32.4859,398.277497477299
32.5155,445.00269179004
32.5451,454.44702320888
32.5747,472.255297679113
32.6043,498.088156123822
32.6339,507.766565758493
32.6635,513.871846619576
32.6932,551.372139973084
32.7228,606.496468213926
32.7524,629.878573831147
32.782,661.855989232828
32.8116,783.68752102254
32.8412,865.85872855701
32.8708,982.511440107665
32.9004,1213.6414396233
32.93,1587.03666330308
32.9597,2065.7436932391
32.9893,2817.52557200541
33.0189,4083.81533804246
33.0485,6574.12411705394
33.0781,12782.7890309565
33.1077,27131.8694920945
33.1373,46282.7870837538
33.1669,45199.2644683731
33.1965,31263.4698957281
33.2262,29407.9771274811
33.2558,21861.7722072678
33.2854,10102.8180289266
33.315,5090.2381432896
33.3446,3131.40444145367
33.3742,2146.18802556346
33.4038,1601.65186680119
33.4334,1309.33479138629
33.463,1138.790110999
33.4927,961.45812310797
33.5223,856.451059535818
33.5519,781.216689098246
33.5815,685.697275479315
33.6111,647.185671039355
33.6407,613.679004037686
33.6703,595.659603094515
33.6999,533.552640430541
33.7295,500.977119784657
33.7592,509.237470568449
33.7888,487.398587285572
33.8184,448.714670255721
33.848,457.075344769593
33.8776,456.438614194417
33.9072,434.86742934051
33.9368,422.503531786072
33.9664,472.963336696942
33.996,442.906155398591
34.0257,495.426312247645
34.0553,525.535822401608
34.0849,612.801210898084
34.1145,581.554508748305
34.1441,450.748065926673
34.1737,442.513958964008
34.2033,396.863728129206
34.2329,391.489404641777
34.2625,370.508577194753
34.2922,397.410161507404
34.3218,419.324251597712
34.3514,371.169525731583
34.381,388.984858681023
34.4106,385.9858728557
34.4402,372.047090480995
34.4698,355.13151698621
34.4994,362.905787348587
34.529,372.838546922301
34.5587,358.257315842584
34.5883,335.495122771613
34.6179,314.537012113057
34.6475,356.682811974434
34.6771,365.725529767911
34.7067,359.268506056527
34.7363,371.444668684831
34.7659,351.988900100907
34.7955,367.130551816959
34.8252,387.905146316853
34.8548,356.921291624622
34.8844,359.697173620458
34.914,403.948873192065
34.9436,409.792129162462
34.9732,419.266487213997
35.0028,417.233097880928
35.0324,387.626303397239
35.062,379.518668012109
35.0917,441.986877523547
35.1213,445.274470232089
35.1509,489.302724520684
35.1805,450.79676985195
35.2101,508.700975445684
35.2397,568.589976454756
35.2693,589.196500672946
35.2989,670.465186680117
35.3285,708.235788765558
35.3581,889.522543741574
35.3878,1024.1910528086
35.4174,1308.56912209889
35.447,1685.51379542397
35.4766,2269.08072653885
35.5062,3422.04204507229
35.5358,5782.00504710623
35.5654,12641.8446014133
35.595,27312.4439959639
35.6246,33850.2896064584
35.6543,23232.0780619115
35.6839,19528.1446350486
35.7135,19662.8160107635
35.7431,11735.2146702558
35.7727,5573.803229062
35.8023,3053.74739320537
35.8319,2011.13997308212
35.8615,1553.43121426171
35.8911,1399.35923309789
35.9208,1396.67698519516
35.9504,1573.6256306761
35.98,1748.14530776994
36.0096,1618.32234185733
36.0392,1448.38782374707
36.0688,1253.68213925327
36.0984,1069.0201816347
36.128,840.25302826377
36.1576,678.073326606108
36.1873,566.10225361587
36.2169,477.812920592187
36.2465,448.122098890011
36.2761,411.004036326943
36.3057,377.459623149393
36.3353,388.676421123443
36.3649,363.807265388496
36.3945,345.614401076716
36.4241,312.894719138913
36.4538,318.131853346788
36.4834,315.250336473755
36.513,328.671712075344
36.5426,312.664984863774
36.5722,301.134589502019
36.6018,299.28792465523
36.6314,311.030945173226
36.661,278.723511604446
36.6906,263.699192462988
36.7203,289.13824419778
36.7499,313.184325597039
36.7795,296.23755047106
36.8091,275.717457114026
36.8387,252.609485368317
36.8683,250.769851951548
36.8979,251.309115371678
36.9275,243.316515304406
36.9571,230.037012113055
36.9868,246.889001009082
37.0164,237.573158425833
37.046,251.226783310903
37.0756,247.736966027581
37.1052,251.27682475614
37.1348,251.582240161453
37.1644,236.522880215345
37.194,228.733266061218
37.2236,238.692902791792
37.2533,236.833445491253
37.2829,225.136562394887
37.3125,224.717457114026
37.3421,227
37.3717,223.944164143962
37.4013,209.257315842581
37.4309,214.860363391657
37.4605,229.385469223007
37.4901,237.158089471915
37.5198,222.203903095561
37.5494,217.067608476286
37.579,207.969727547933
37.6086,209.608344549125
37.6382,227.218970736628
37.6678,235.715438950555
37.6974,235.865119408006
37.727,223.171601615073
37.7566,231.329969727546
37.7863,240.535822401615
37.8159,237.553835800808
37.8455,229.206189034646
37.8751,208.36898755466
37.9047,202.410497981158
37.9343,202.168516649848
37.9639,199.064917591658
37.9935,205.28263795424
38.0231,207.379751093172
38.0528,194.016145307771
38.0824,200.602960969043
38.112,204.678102926336
38.1416,207.776992936428
38.1712,204.305751765892
38.2008,186.996635262449
38.2304,198.934409687183
38.26,193.755129498823
38.2896,178.422274562584
38.3192,178.607130844265
38.3489,182.738984191053
38.3785,190.041049798116
38.4081,187.574167507568
38.4377,180.820047090481
38.4673,179.666890982503
38.4969,185.924991590986
38.5265,192.03935418769
38.5561,198
38.5857,204.295997309116
38.6154,206.166834846957
38.645,195.444145356663
38.6746,206.410359905819
38.7042,212.486377396572
38.7338,185.937436932391
38.7634,185.965006729472
38.793,197.345442314161
38.8226,200.212916246215
38.8522,219.218034993271
38.8819,216.002018163468
38.9115,212.508577194749
38.9411,219.036339165545
38.9707,220.047090480998
39.0003,265.466195761854
39.0299,313.32436069986
39.0595,353.717120753448
39.0891,343.79986545577
39.1187,329.729475100941
39.1484,353.468550285906
39.178,401.944500504538
39.2076,557.639085099252
39.2372,874.933041722795
39.2668,1165.96670030271
39.2964,1159.41372351158
39.326,1123.35834454915
39.3556,1402.20013454426
39.3852,1725.9512277161
39.4149,1982.43539703903
39.4445,1890.91691893707
39.4741,1589.78002018166
39.5037,1356.77759084791
39.5333,1251.2475613858
39.5629,992.463168516642
39.5925,719.950201884251
39.6221,547.889001009085
39.6517,440.361251261354
39.6814,383.412853297436
39.711,327.866464850324
39.7406,283.199125462497
39.7702,271.504540867811
39.7998,268.351278600265
39.8294,227.308779011101
39.859,245.354860410362
39.8886,257.034993270525
39.9182,237.902119071645
39.9479,241.563067608476
39.9775,253.885598923285
40.0071,242.120417087117
40.0367,253.47426841574
40.0663,257.975100942129
40.0959,231.297679112007
40.1255,255.428523377061
40.1551,272.230148048449
40.1847,251.466195761853
40.2144,270.09216279852
40.244,266.575176589304
40.2736,276.838492597578
40.3032,286.611167171207
40.3328,299.885301042718
40.3624,301.914872139973
40.392,296.722502522704
40.4216,300.550285906491
40.4512,333.612718707941
40.4809,346.988900100908
40.5105,384.02623612513
40.5401,374.221736204573
40.5697,437.005045408678
40.5993,468.907500840905
40.6289,552.203230148044
40.6585,661.046081399266
40.6881,820.365287588302
40.7177,1039.34353970388
40.7474,1481.53884964691
40.777,2704.47056844923
40.8066,5376.19609821763
40.8362,9427.54306864073
40.8658,9947.39051463193
40.8954,6096.81500168178
40.925,5304.60161507398
40.9546,6208.69021190735
40.9842,4426.98789101933
41.0139,2227.89502018852
41.0435,1262.33905146314
41.0731,909.552976791138
41.1027,679.24293405114
41.1323,597.758493104613
41.1619,517.647830474268
41.1915,489.417227456258
41.2211,410
41.2507,408.908509922637
41.2803,397.672048435922
41.31,385.375504710633
41.3396,387.652875882948
41.3692,373.316515304407
41.3988,364.702557200537
41.4284,350
41.458,351.307769929364
41.4876,367.316958277254
41.5172,353.824083417429
41.5468,294.317188025562
41.5765,315.294414535666
41.6061,319.013118062562
41.6357,304.169525731584
41.6653,342.879542395697
41.6949,299.33636057854
41.7245,307.301379078372
41.7541,314.133916554507
41.7837,289.234106962664
41.8133,297.024890682812
41.843,297.904473595694
41.8726,294.156123822343
41.9022,301.566767574839
41.9318,274.244197780019
41.9614,296.107671601617
41.991,311.932727884292
42.0206,287.042045072318
42.0502,278.054490413723
42.0798,275.030282637954
42.1095,291.811301715438
42.1391,296.922637066936
42.1687,303.863391655451
42.1983,297.167171207534
42.2279,281.452068617556
42.2575,259.710632570659
42.2871,269.596703666331
42.3167,293.974100235451
42.3463,300.727547931383
42.376,288.599259757737
42.4056,269.009081735619
42.4352,292.574503868146
42.4648,307.175639300135
42.4944,300.505886310125
42.524,281.352169525731
42.5536,319.918236877527
42.5832,320.22805247225
42.6128,301.607803565422
42.6425,295.405450874832
42.6721,294.085435586949
42.7017,301.281533804238
42.7313,298.375504710632
42.7609,277.258997645473
42.7905,289.358560376724
42.8201,281.173283983848
42.8497,311.115035317859
42.8793,342.423477968381
42.909,351.301715438951
42.9386,343.204576043068
42.9682,352.50252270434
42.9978,389.704339051461
43.0274,450.472409152079
43.057,486.597712748067
43.0866,673.765893037318
43.1162,958.483176312227
43.1458,1365.64883955599
43.1755,1580.20887991927
43.2051,1530.99057873486
43.2347,1242.24520686176
43.2643,1144.86377396569
43.2939,1111.0471063257
43.3235,942.992936427839
43.3531,707.346787756455
43.3827,582.94853683147
43.4123,555.224764468371
43.442,653.079717457106
43.4716,993.239152371377
43.5012,1164.62180349933
43.5308,862.844937773326
43.5604,652.170198452747
43.59,692.692799461631
43.6196,687.569122098887
43.6492,516.418768920294
43.6788,400.055518169594
43.7085,330.164816683489
43.7381,299.739656912209
43.7677,257.260767160158
43.7973,233.745711402624
43.8269,235.330642448705
43.8565,225.638963660836
43.8861,228.778002018164
43.9157,230.25126135217
43.9453,233.721829801547
43.975,228.307537012113
44.0046,214.170871173899
44.0342,226.168853010426
44.0638,227.615074024226
44.0934,199.118062563069
44.123,194.777329297006
44.1526,212.078734858682
44.1822,212.289942818701
44.2118,202.906155398586
44.2414,231.030955585461
44.2711,227.800201816349
44.3007,207.700639085099
44.3303,215.916554508748
44.3599,244.821392532792
44.3895,269.430877901111
44.4191,269.854692230071
44.4487,242.56796769852
44.4783,228.97679112008
44.5079,205.889001009083
44.5376,196.338492597577
44.5672,186.360242179615
44.5968,202.800201816347
44.6264,191.680349932709
44.656,172.825765220317
44.6856,189.082744702322
44.7152,192.919582772543
44.7448,176.211570803903
44.7744,188.686511940797
44.8041,198.731493943472
44.8337,187.919946182309
44.8633,189.507568113016
44.8929,196.485868102288
44.9225,179.483350151361
44.9521,183.321224352509
44.9817,191.783047426842
45.0113,195.230148048452
45.0409,199.200134544231
45.0706,198.80188361924
45.1002,187.886944818303
45.1298,188.678439286917
45.1594,172.894046417757
45.189,171.970390309558
45.2186,172.176252943156
45.2482,177.043390514631
45.2778,184.861372812921
45.3074,182.304742684157
45.3371,196.230070635725
45.3667,204.64064602961
45.3963,187.552640430542
45.4259,190.884964682139
45.4555,201.359233097881
45.4851,207.598250336475
45.5147,206.999327278841
45.5443,199.931718802556
45.5739,201.649730820996
45.6036,196.592667339387
45.6332,188.425832492432
45.6628,185.958950201884
45.6924,180.353178607467
45.722,186.238816010762
45.7516,193.46130551817
45.7812,178.91523713421
45.8108,173.489068281197
45.8404,173.070659488561
45.8701,179.835183316517
45.8997,194.979482004709
45.9293,196
45.9589,196.481331987891
45.9885,192.70736629667
46.0181,182.80154725866
46.0477,186.835800807537
46.0773,198.464177598385
46.1069,197.620585267407
46.1366,190.492597577389
46.1662,185.819038008745
46.1958,192.503868146654
46.2254,195.323014804846
46.255,203.491422805245
46.2846,206.622267070296
46.3142,196.333781965008
46.3438,205.862764883956
46.3734,208.026236125127
46.4031,203.576043068641
46.4327,213.494450050451
46.4623,207.229734275148
46.4919,179.233097880928
46.5215,197.678667563934
46.5511,222.805247225025
46.5807,220.017490750085
46.6103,211.241924629879
46.6399,199.982845610495
46.6696,193.665993945511
46.6992,204.845895020188
46.7288,209.478304742684
46.7584,208.504204507232
46.788,216.577052489906
46.8176,228.941136898756
46.8472,236.542885973764
46.8768,248.180349932705
46.9064,265.25832492432
46.9361,285.384796501849
46.9657,319.536675639299
46.9953,341.345442314161
47.0249,376.789101917263
47.0545,459.824756138587
47.0841,516.265141318974
47.1137,595.561049445002
47.1433,656.591321897073
47.1729,655.287348586811
47.2025,641.315506222671
47.2322,657.095862764888
47.2618,695.894347240915
47.2914,697.674739320553
47.321,660.23309788093
47.3506,646.087483176315
47.3802,713.369996636395
47.4098,832.204843592318
47.4394,1003.22139973083
47.469,1320.23007063575
47.4987,1617.40161453075
47.5283,1858.22771611167
47.5579,1828.39131897712
47.5875,1662.72115708039
47.6171,1511.10998990918
47.6467,1449.48351278601
47.6763,1330.78372014799
47.7059,1001.08913555333
47.7355,802.753701211318
47.7652,649.476959300369
47.7948,537.232088799197
47.8244,482.545760430685
47.854,410.936091490083
47.8836,351.450050454086
47.9132,331.046433378192
47.9428,366.430877901113
47.9724,334.845274133874
48.002,306.892664872139
48.0317,311.066263033972
48.0613,299.589640094181
48.0909,302.819374369324
48.1205,321.21399730821
48.1501,320.69357551295
48.1797,331.435923309788
48.2093,338.185733512791
48.2389,380.616548940464
48.2685,388.350487722839
48.2982,395.054508748315
48.3278,432.445677766561
48.3574,512.5926673394
48.387,607.965006729471
48.4166,745.297679111995
48.4462,932.595021863485
48.4758,1333.58075370124
48.5054,1678.39825092497
48.535,1853.44904137235
48.5647,1713.42684157418
48.5943,1468.2537012113
48.6239,1411.13050790447
48.6535,1296.86747393204
48.6831,1119.81628532975
48.7127,927.700302724517
48.7423,776.106626303406
48.7719,651.68909825034
48.8015,573.577194752787
48.8312,480.933400605451
48.8608,442.002691790043
48.8904,408.971745711404
48.92,432.425496131851
48.9496,385.7799461642
48.9792,377.154053144965
49.0088,422.055499495459
49.0384,414.941117092872
49.068,464.351496804574
49.0977,471.840901446351
49.1273,513.765220316174
49.1569,573.390309555869
49.1865,663.10292633703
49.2161,768.962327615205
49.2457,852.514804845209
49.2753,1097.2169525731
49.3049,1449.00807265385
49.3345,1957.33647375513
49.3642,3271.94752774973
49.3938,6031.71342078786
49.4234,11723.9111709285
49.453,16491.9791456442
49.4826,11596.7830474266
49.5122,7224.77052489903
49.5418,6838.24587958309
49.5714,8788.44365960302
49.601,7750.99999999993
49.6307,4333.45206861772
49.6603,2424.66520861396
49.6899,1544.27850655911
49.7195,1087.27480659261
49.7491,841.351278600285
49.7787,687.396569122092
49.8083,554.534140598731
49.8379,501.561574697169
49.8675,433.413723511598
49.8972,432.928018836192
49.9268,395.561574697172
49.9564,396.866801210898
49.986,340.877564749416
50.0156,308.637617765813
50.0452,330.570467541204
50.0748,332
50.1044,289.95255720054
50.134,307.460813992603
50.1636,300.669021190716
50.1933,272.260343087791
50.2229,240.541049798113
50.2525,252.659939455095
50.2821,271.325597040028
50.3117,242.134589502022
50.3413,246.227716111672
50.3709,229.018163471243
50.4005,241.320323014805
50.4301,228.749075008408
50.4598,251.021190716446
50.4894,232.745625841186
50.519,265.25058863101
50.5486,218.26337033299
50.5782,239.802826379541
50.6078,215.340060544904
50.6374,217.048772283888
50.667,229.176589303732
50.6966,211.319986541047
50.7263,206.290615539859
50.7559,190.694248234106
50.7855,217.618102288021
50.8151,211.213252606793
50.8447,214.862764883956
50.8743,246.837483176313
50.9039,235.588294651869
50.9335,208.906828119744
50.9631,210.565275908479
50.9928,219.377396569122
51.0224,200.616548940462
51.052,205.734858681024
51.0816,189.440632357887
51.1112,202.656239488729
51.1408,197.418573351279
51.1704,198.176589303734
51.2,190.312478977465
51.2296,202.137235116045
51.2593,206
51.2889,211.462495795493
51.3185,206.792129162462
51.3481,212.718707940782
51.3777,216.535149680458
51.4073,206.315169862094
51.4369,220.458950201887
51.4665,207.884964682138
51.4961,224.512613521698
51.5258,230.50067294751
51.5554,246.398250924994
51.585,280.899091826442
51.6146,324.159488559892
51.6442,306.696266397582
51.6738,264.686511940805
51.7034,246.483176312248
51.733,231.763202152706
51.7626,230.577194752774
51.7923,228.427850655904
51.8219,212.794078061913
51.8515,192.173562058527
51.8811,188.104944500505
51.9107,207.135262449531
51.9403,230.944500504541
51.9699,209.756474941134
51.9995,227.127860026915
52.0291,232.834510595358
52.0588,221.526067944838
52.0884,224.753028263796
52.118,218.605449041371
52.1476,203.333333333334
52.1772,202.637617765814
52.2068,207.633030608813
52.2364,209
52.266,207.051463168517
52.2956,222.77927321669
52.3253,208.799192734614
52.3549,183.83821056172
52.3845,197.98586810229
52.4141,221.370332996973
52.4437,229.881937436933
52.4733,217.290713324362
52.5029,208.381096535486
52.5325,209.229061553986
52.5621,210.610363391656
52.5918,221.361251261352
52.6214,206.821056172214
52.651,214.032974427991
52.6806,214.275815674405
52.7102,201.446014127144
52.7398,201.940780619111
52.7694,213.342751429534
52.799,202.033972418432
52.8286,212.007063572147
52.8583,222.68203230148
52.8879,217.429868819374
52.9175,220.394550958627
52.9471,220.753701211305
52.9767,231.819038008748
53.0063,234.811301715439
53.0359,229
53.0655,226.277161116718
53.0951,223.459804910865
53.1247,225.680013458951
53.1544,217.297006390853
53.184,220.738647830472
53.2136,246.744279946167
53.2432,264.701311806257
53.2728,264.338042381434
53.3024,262.054490413723
53.332,255.339838492598
53.3616,259.125126135219
53.3912,281.016818028924
53.4209,280.000000000002
53.4505,283.378069290279
53.4801,295.542885973763
53.5097,305.180349932705
53.5393,320.898082744702
53.5689,332.615539858728
53.5985,366.195827725441
53.6281,381.714429868818
53.6577,401.144298688187
53.6874,456.13526244953
53.717,524.003027245221
53.7466,607.299360914899
53.7762,705.215343203231
53.8058,837.211907164492
53.8354,978.091153716784
53.865,1141.28590649176
53.8946,1427.64737550474
53.9242,1984.61453077708
53.9539,3072.93945509564
53.9835,5426.66083445531
54.0131,10402.0891355525
54.0427,16774.2250252269
54.0723,17595.325370121
54.1019,11943.5479313816
54.1315,7930.74739320547
54.1611,8008.53532974415
54.1907,9751.83551967702
54.2204,9222.0649175919
54.25,5919.77725437457
54.2796,3305.06861755807
54.3092,1940.55869492093
54.3388,1324.35418768917
54.3684,992.422611036328
54.398,860.800201816373
54.4276,702.527413387176
54.4572,588.686406460301
54.4869,527.408005381762
54.5165,455.22334342415
54.5461,404.733512786007
54.5757,377.248234106962
54.6053,381.116717120753
54.6349,352.798788694481
54.6645,324.993945509587
54.6941,321
54.7237,305.366083445495
54.7534,284.047426841574
54.783,291.934073326612
54.8126,278.977119784655
54.8422,319.375714766229
54.8718,294.609485368324
54.9014,248.978136562392
54.931,267.093876177657
54.9606,260.200470904809
54.9902,249.146316851665
55.0199,274.776581426642
55.0495,225.576185671038
55.0791,216.903464513953
55.1087,246.969380888289
55.1383,220.817019845273
55.1679,210.220988900101
55.1975,217.415208613729
55.2271,206.759838546919
55.2567,197.180289270095
55.2864,214.377523553166
55.316,198.758829465185
55.3456,207.291624621595
55.3752,204.804238143288
55.4048,220.624495289369
55.4344,211.132526067946
55.464,210.955600403634
55.4936,226.50471063257
55.5232,206.366296670031
55.5529,194.392869155732
55.5825,207.631224764469
55.6121,198.155062226707
55.6417,193.345105953583
55.6713,190.038358008074
55.7009,204.579885637402
55.7305,212.671039354188
55.7601,207.554508748318
55.7897,228.85671039354
55.8194,241.985872855699
55.849,260.753701211303
55.8786,243.884964682141
55.9082,231.07803565422
55.9378,211.472250252272
55.9674,193.62819650067
55.997,244.113689875546
56.0266,246.905482677428
56.0562,234.662516823687
56.0858,272.705348133204
56.1155,351.752774974787
56.1451,404.708277254374
56.1747,339.67272115708
56.2043,321.951900437271
56.2339,301.871803499327
56.2635,301.992936427851
56.2931,309.359233097881
56.3227,309.807200538357
56.3523,288.769256643122
56.382,253.565758493104
56.4116,242.635721493441
56.4412,251.759757738902
56.4708,286.560713084428
56.5004,303.795156407671
56.53,337.662180349924
56.5596,406.847628657921
56.5892,414.633366969391
56.6188,395.04576043069
56.6485,345.342415068951
56.6781,327.12916246216
56.7077,353.800807537015
56.7373,335.498486377394
56.7669,312.185334678775
56.7965,297.169582772541
56.8261,265.64715775311
56.8557,276.819374369325
56.8853,251.753701211305
56.915,245.515640766902
56.9446,234.899764547592
56.9742,258.557349478639
57.0038,245.190780619112
57.0334,252.348133198788
57.063,266.679784729228
57.0926,250.622139973086
57.1222,293.333669693914
57.1518,325
57.1815,325.393674293392
57.2111,403.007063572148
57.2407,409.976454759501
57.2703,472.512613521692
57.2999,527.352288021532
57.3295,636.2240161453
57.3591,847.609149007734
57.3887,1311.4310228802
57.4183,1720.16885301048
57.448,1876.53952236797
57.4776,1656.95963673057
57.5072,1772.09017496635
57.5368,2442.31113353519
57.5664,3826.08442650516
57.596,4196.63391655451
57.6256,3021.04036326945
57.6552,1958.22502522707
57.6848,1618.85935397041
57.7145,1967.48738647833
57.7441,2092.58594012782
57.7737,1689.49461641993
57.8033,1075.9505549949
57.8329,718.576185671011
57.8625,521.021534320304
57.8921,406.771947527754
57.9217,356.268415741678
57.9513,353.802153432032
57.981,310.795156407663
58.0106,303.312815338042
58.0402,318.153044063233
58.0698,321.774562584118
58.0994,297.277497477297
58.129,301.028590649176
58.1586,282.761103633917
58.1882,293.052472250253
58.2178,255.173562058525
58.2475,249.865074024226
58.2771,257.746720484361
58.3067,234.165153044062
58.3363,263.239232839841
58.3659,221.513958964011
58.3955,229.871846619579
58.4251,217.888963660833
58.4547,193.2852337706
58.4843,181.522704339052
58.514,199.915237134208
58.5436,193.265814266486
58.5732,177.857719475277
58.6028,171.731920618903
58.6324,195.387617765815
58.662,187.253615876219
58.6916,199.280524722501
58.7212,184.596904441452
58.7508,165.675075681129
58.7805,192.203161789433
58.8101,201.581426648721
58.8397,183.912546249583
58.8693,159.449041372353
58.8989,185.895020188419
58.9285,191.905482677431
58.9581,179.461150353177
58.9877,183.651413189773
59.0173,180.674066599395
59.0469,202.450723175243
59.0766,196.401614530775
59.1062,175.470390309556
59.1358,199.882273797507
59.1654,190.690211907166
59.195,178.830080753701
59.2246,168.18869828456
59.2542,165
59.2838,189.676312247644
59.3134,187.456104944501
59.3431,184.440968718466
59.3727,180.701884253028
59.4023,181.848301379078
59.4319,194.323242515977
59.4615,192.66790040377
59.4911,187.902119071644
59.5207,216.881601076358
59.5503,231.381096535486
59.5799,234.059219380888
59.6096,213.063908509922
59.6392,207.767911200807
59.6688,197.814266487212
59.6984,179.218298015473
59.728,171.663303060882
59.7576,178.306191117094
59.7872,205.757820383454
59.8168,185.877228388833
59.8464,170.302826379542
59.8761,180.757820383452
59.9057,195.04608139926
59.9353,196.14804845222
59.9649,192.724520686175
59.9945,196.433568785738
60.0241,200.258411843876
60.0537,204.124789774638
60.0833,204.758829465187
60.1129,189.827110662628
60.1426,182.846231493944
60.1722,174.832492431888
60.2018,185.990245543223
60.2314,204.231493943472
60.261,211.393541876892
60.2906,203.495795492769
60.3202,212.335800807539
60.3498,201.918264379421
60.3794,210.249243188695
60.4091,211.328734858679
60.4387,217.285570131177
60.4683,232.287251934073
60.4979,244.784993270522
60.5275,267.648503195427
60.5571,281.795156407668
60.5867,327.26337033301
60.6163,401.633916554509
60.6459,455.849983181964
60.6756,513.257315842576
60.7052,530.309555854642
60.7348,511.631685166497
60.7644,477.714766229398
60.794,462.037012113057
60.8236,459.470904809959
60.8532,451.598385469224
60.8828,441.113055181697
60.9124,426.954927682476
60.9421,415.815338042382
60.9717,419.145356662179
61.0013,454.085099226378
61.0309,477.497477295661
61.0605,459.25572005383
61.0901,402.34174234781
61.1197,361.061217625295
61.1493,349.873864783045
61.1789,352.378869448181
61.2086,379.307769929362
61.2382,361.03666330307
61.2678,337.533983849262
61.2974,327.5627312479
61.327,330.526740665984
61.3566,364.007065948857
61.3862,366.544567776655
61.4158,384.125462495794
61.4454,387.7065948856
61.4751,366.91052808611
61.5047,344.20484359233
61.5343,347.497308209958
61.5639,359.572485704675
61.5935,377.618230743363
61.6231,361.123107971732
61.6527,295.952893674295
61.6823,290.513958964008
61.7119,300.653884964681
61.7416,294.251682368773
61.7712,271.386814665322
61.8008,263.793138244198
61.8304,279.123822341862
61.86,285.085435586944
61.8896,274.200134544233
61.9192,298.13862718708
61.9488,310.13521695257
61.9784,330.7100571813
62.008,357.171601615079
62.0377,396.025563403969
62.0673,422.164143962331
62.0969,479.584118438751
62.1265,528.357214934413
62.1561,560.579549276818
62.1857,624.14362596705
62.2153,713.501345895014
62.2449,871.285570131171
62.2745,1155.99730911532
62.3042,1670.7267833108
62.3338,2677.62663975763
62.3634,4805.14900773614
62.393,8418.10969044348
62.4226,11232.9737638749
62.4522,9813.34376051046
62.4818,5989.62348586803
62.5114,4129.33703329966
62.541,4135.84359233087
62.5707,5293.96635262459
62.6003,6024.45105953582
62.6299,4792.65085771919
62.6595,2815.02623612526
62.6891,1712.76581426659
62.7187,1145.83350151365
62.7483,905.469223007057
62.7779,698.963660834434
62.8075,543.607130844262
62.8372,498.568449377733
62.8668,472.92395693136
62.8964,430.206861755802
62.926,413.273124789774
62.9556,401.589502018844
62.9852,393.394887319205
63.0148,400.5297679112
63.0444,404.539703903099
63.074,418.012445341404
63.1037,402.354187689203
63.1333,404.78600269179
63.1629,394.392532795155
63.1925,383.083753784058
63.2221,371.620585267403
63.2517,345.604979811569
63.2813,318.206189034639
63.3109,352.650857719476
63.3405,340.128196500673
63.3702,327.427850655903
63.3998,321.08678102926
63.4294,307.458613728131
63.459,326.914564413049
63.4886,345
63.5182,345.507738896366
63.5478,347.339387823748
63.5774,353.003699966364
63.607,402.972745625844
63.6367,426.319542549616
63.6663,472.508577194757
63.6959,519.142280524725
63.7255,581.994616419918
63.7551,622.768247561398
63.7847,755.183652875895
63.8143,967.261776581426
63.8439,1230.50924991585
63.8735,1764.53346787759
63.9032,2812.58075370118
63.9328,4927.98419105247
63.9624,8816.10797174584
63.992,11614.7765814263
64.0216,8905.27447023148
64.0512,5227.53817692573
64.0808,3564.10161507402
64.1104,3788.78910191711
64.14,5095.73763874856
64.1697,6226.24697173634
64.1993,4827.8052472246
64.2289,2701.27480659252
64.2585,1675.64682139253
64.2881,1070.68068640643
64.3177,875.958291288276
64.3473,680.252270433903
64.3769,585.280955585468
64.4065,502.066599394546
64.4362,447.798183652877
64.4658,443.170255720056
64.4954,424.402287251933
64.525,388.452068617557
64.5546,402.198519515466
64.5842,465.912209889001
64.6138,464.393878237466
64.6434,520.169919246299
64.673,576.626303397238
64.7027,612.947864110335
64.7323,545.600403632691
64.7619,509.737550471058
64.7915,470.903128153381
64.8211,435.060544904138
64.8507,457.860746720484
64.8803,450.08075370121
64.9099,401.70871173898
64.9395,386.282542885977
64.9691,330.304172274556
64.9988,289.955264043054
65.0284,264.706357214934
65.058,278.515477792733
65.0876,267.439959636732
65.1172,229.600403632687
65.1468,242.323687752356
65.1764,225.890010090818
65.206,233.515640766902
65.2356,217.041722745629
65.2653,219.764547595023
65.2949,214.379414732593
65.3245,227.9858728557
65.3541,232.7133243607
65.3837,223.760174907502
65.4133,242.311806256306
65.4429,261.395356662183
65.4725,272.112008072653
65.5021,256.677093844601
65.5318,276.746971736206
65.5614,309.660612176259
65.591,382.997981836525
65.6206,413.333445491252
65.6502,413.332996972754
65.6798,409.461486713758
65.7094,430.133243606996
65.739,393.570131180621
65.7686,359.229061553987
65.7983,353.258324924319
65.8279,343.465679676986
65.8575,336.825428859738
65.8871,327.419441641438
65.9167,290.987213997303
65.9463,297.744702320891
65.9759,308.452741338716
66.0055,330.188425302827
66.0351,295.504204507235
66.0648,263.760174907501
66.0944,242.364737550473
66.124,219.968718466196
66.1536,248.922973427516
66.1832,243.715343203228
66.2128,213.301379078374
66.2424,198.086781029263
66.272,191.969044414536
66.3016,174.962327615204
66.3313,187.017490750084
66.3609,192.593003699967
66.3905,173.982503364736
66.4201,169.78809283552
66.4497,180.188361923984
66.4793,180.661170928668
66.5089,172.246888664649
66.5385,170
66.5681,164.632234185733
66.5978,157.638748738647
66.6274,159.807601749075
66.657,161.757402422611
66.6866,179.321560713086
66.7162,163.286579212913
66.7458,172.381561238224
66.7754,160.972418432556
66.805,152.792129162462
66.8346,162.242179616548
66.8643,152.114401076717
66.8939,157.171543895057
66.9235,145.112344433233
66.9531,167.003364737546
66.9827,181.568785738312
67.0123,181.581231079717
67.0419,169.71601615074
67.0715,174.11268079381
67.1011,176.606794483687
67.1308,196.874831763116
67.1604,170.039017827105
67.19,156.061553985873
67.2196,163.147375504709
67.2492,158.533467877563
67.2788,165.116044399594
67.3084,164.637954239568
67.338,154.674066599393
67.3676,166.878910191725
67.3973,176.981836528759
67.4269,163.557873485867
67.4565,169.044063235789
67.4861,171.46518668012
67.5157,152.26446837147
67.5453,160.264379414731
67.5749,175.715438950556
67.6045,171.429340511441
67.6341,144.440968718467
67.6638,152.897073662969
67.6934,147.355989232845
67.723,141.55499495459
67.7526,171.352505886313
67.7822,164.870121130556
67.8118,154.231079717458
67.8414,160.000336360578
67.871,160.808610830811
67.9006,167.689771197848
67.9302,163.603430877904
67.9599,168.725529767909
67.9895,158.372812920591
68.0191,146.155734947864
68.0487,144.706020854356
68.0783,159.510094212658
68.1079,169.739656912211
68.1375,156.785738311473
68.1671,150.226110363392
68.1967,153.656912209889
68.2264,151.692230070636
68.256,150.64131897712
68.2856,156.885973763875
68.3152,169.077699293639
68.3448,170.656796769853
68.3744,176.602085435589
68.404,172.330978809284
68.4336,160
68.4632,161.034320323014
68.4929,158.385805583585
68.5225,168.822401614529
68.5521,175.907133243608
68.5817,156.908173562059
68.6113,148.991590985537
68.6409,158.949528936742
68.6705,153.203498150016
68.7001,156.591321897078
68.7297,177.303835800806
68.7594,182.037336024218
68.789,172.89169189371
68.8186,155.49057873486
68.8482,166.616212579891
68.8778,182.108980827449
68.9074,164.263706693575
68.937,162.656123822342
68.9666,178.868146653212
68.9962,176.165489404645
69.0259,163.553835800808
69.0555,181.563067608472
69.0851,202.374369323914
69.1147,190.332436069986
69.1443,184.150353178607
69.1739,202.895055499494
69.2035,234.141318977114
69.2331,254.167171207534
69.2627,252.175916582576
69.2924,232.497308209962
69.322,206.813992600067
69.3516,210.818365287589
69.3812,248.464333781978
69.4108,294.663639421459
69.4404,297.356205852671
69.47,375.987891019198
69.4996,509.641655450885
69.5292,711.824083417479
69.5589,1081.71241170538
69.5885,1237.0117765814
69.6181,1016.51664984867
69.6477,696.435923309769
69.6773,534.02119784658
69.7069,490.356205852667
69.7365,549.926337033307
69.7661,637.97341857333
69.7957,692.503531786082
69.8254,550.087790111005
69.855,393.478465679667
69.8846,284.352842246887
69.9142,254.494786411034
69.9438,230.08476286579
69.9734,217.28734858681
70.003,194.165825765219
70.0326,182.156071308441
70.0622,192.169582772546
70.0919,190.325260679448
70.1215,214.793138244198
70.1511,209.917900403767
70.1807,217.90548267743
70.2103,243.799192734614
70.2399,229.576716016152
70.2695,227.683148335016
70.2991,240.284561049443
70.3287,260.912516823688
70.3584,255.560040363269
70.388,255.401614530776
70.4176,262.239569313591
70.4472,231.741675075681
70.4768,231.507904473596
70.5064,227.509249915907
70.536,210.018842530283
70.5656,208.447023208881
70.5952,203.054490413723
70.6249,178.54777927322
70.6545,196.510931718809
70.6841,179.774974772957
70.7137,190.422947510093
70.7433,174.065590312815
70.7729,174.270097544572
70.8025,144.883916554503
70.8321,179.731920618904
70.8617,170.596367305751
70.8913,170.38257065949
70.921,176.196770938446
70.9506,172.959636730574
70.9802,152.614401076718
71.0098,147.015472586619
71.0394,179.815338042379
71.069,148.401950891357
71.0986,156.025572005383
71.1282,160.499495459132
71.1578,158.97477295661
71.1875,163.353970390309
71.2171,162.990918264378
71.2467,176.551294988224
71.2763,164.48721399731
71.3059,176.615876219308
71.3355,193.792129162466
71.3651,171.806191117093
71.3947,197.318533467877
71.4243,204.852674066599
71.454,196.367429340512
71.4836,195.795492768252
71.5132,223.236125126135
71.5428,225.909519004373
71.5724,236.061911170923
71.602,265.000672721159
71.6316,297.587285570131
71.6612,286.738223418572
71.6908,308.642448705022
71.7205,369.031954254959
71.7501,425.274562584104
71.7797,505.622267070299
71.8093,689.274470232139
71.8389,990.749663526273
71.8685,1575.18869828472
71.8981,2669.64009418103
71.9277,3697.72947510092
71.9573,3409.55297679126
71.987,2451.15943491443
72.0166,1600.22476446842
72.0462,1259.86579212916
72.0758,1297.20181634715
72.1054,1757.92936427844
72.135,2213.42126514133
72.1646,2017.95089135554
72.1942,1571.67574840229
72.2238,1336.84656796767
72.2535,1195.80423814328
72.2831,1091.57416750759
72.3127,834.509421265198
72.3423,564.326606121755
72.3719,487.947527749747
72.4015,475.999999999999
72.4311,492.931359353969
72.4607,588.192734611491
72.4903,569.25563403969
72.52,483.170928667551
72.5496,358.246215943473
72.5792,296.354187689202
72.6088,283.318869828457
72.6384,250.041049798121
72.668,233.559704002694
72.6976,222.432896064581
72.7272,211.477456258412
72.7568,223.379078372015
72.7865,226.853683148335
72.8161,239.31325706595
72.8457,254.142280524721
72.8753,273.768920282541
72.9049,314.244279946158
72.9345,296.539186007397
72.9641,301.479650184998
72.9937,280.803162853297
73.0233,290.007063572151
73.053,258.931382441976
73.0826,283.365410497988
73.1122,236.976791120081
73.1418,268.138580558366
73.1714,243.229061553982
73.201,222.099596231493
73.2306,201.295660948539
73.2602,195.454759502187
73.2898,207.351278600269
73.3195,191.374705684491
73.3491,174.092835519681
73.3787,177.236877523553
73.4083,173.657584931046
73.4379,176.456441305079
73.4675,174.419919246299
73.4971,172.288597376387
73.5267,143.906155398587
73.5563,149.166890982502
73.586,156.923982509251
73.6156,161.367642112344
73.6452,173.725529767913
73.6748,182.667563930015
73.7044,185.658257652204
73.734,192.598049108646
73.7636,168.559555854646
73.7932,163.816347124117
73.8228,164
73.8524,168.847240915209
73.8821,166.772283888329
73.9117,154.764211234441
73.9413,168.767496635261
73.9709,178.559031281533
74.0005,152.357887655567
74.0301,146.57133243607
74.0597,154.813656239488
74.0893,172.539858728555
74.1189,163.088156123825
74.1486,144.332996972751
74.1782,149.210898082745
74.2078,147.420787083754
74.2374,155.86810228802
74.267,150.697275479314
74.2966,143.49747729566
74.3262,129.312920592191
74.3558,142.80827447023
74.3854,152.688193743692
74.4151,148.104979811573
74.4447,144.534813319879
74.4743,137.446014127143
74.5039,142.240915208614
74.5335,156.516986209219
74.5631,155.276488395559
74.5927,146.598250336474
74.6223,134.808610830811
74.6519,137.323915237135
74.6816,140
74.7112,159.530282637958
74.7408,150.669021190713
74.7704,140.244534140598
74.8,137.630551816958
74.8296,152.650521358894
74.8592,163.380423814329
74.8888,154.920928667564
74.9184,169.362596703667
74.9481,166.333333333333
74.9777,173.912853297446
75.0073,182.316515304406
75.0369,195.42381432896
75.0665,196.152422611035
75.0961,195.581903800874
75.1257,239.953918600736
75.1553,260.815275908479
75.1849,259
75.2146,286.794147325936
75.2442,305.50924991591
75.2738,329.4333781965
75.3034,419.74402959973
75.333,588.062563067636
75.3626,890.444818304186
75.3922,1445.95055499504
75.4218,2114.96838210559
75.4514,2269.85060565273
75.4811,1805.35250588638
75.5107,1223.32593340061
75.5403,868.724091520911
75.5699,750.059199461818
75.5995,800.227716111661
75.6291,1052.10565275912
75.6587,1258.54288597376
75.6883,1168.94315506226
75.7179,837.418096199161
75.7476,538.946164199224
75.7772,411.444332324239
75.8068,350.821392532809
75.8364,283.938425302829
75.866,247.188025563405
75.8956,221.311806256303
75.9252,210.040040376854
75.9548,213.809283551968
75.9844,206.25327951564
76.0141,188.835464333784
76.0437,181.701311806257
76.0733,180.82004709048
76.1029,190.900067294753
76.1325,185.635721493443
76.1621,173.567776656576
76.1917,191.5232166891
76.2213,190.579885637402
76.2509,189.818365287588
76.2806,205.439959636731
76.3102,214.359353970389
76.3398,204.060544904143
76.3694,185.564076690212
76.399,192.539703903094
76.4286,189.303733602415
76.4582,174.068281197444
76.4878,182.69448183042
76.5174,196.287251934073
76.5471,187.588967373021
76.5767,174.904441453566
76.6063,175.551967709384
76.6359,175.443659603095
76.6655,189.183041722748
76.6951,184.672721157082
76.7247,174.235116044394
76.7543,194.014463504878
76.7839,168.4639973082
76.8135,154.887655566762
76.8432,182.839219643457
76.8728,193.889973082101
76.9024,197.591321897074
76.932,185.275142953241
76.9616,175.601278600268
76.9912,188.187689202826
77.0208,180.994954591318
77.0504,170.872812920593
77.08,186.577867473931
77.1097,218.048435923311
77.1393,248.156460296095
77.1689,259.110662630338
77.1985,267.477295660949
77.2281,269.634925975774
77.2577,269
77.2873,266.504204507232
77.3169,244.743693239152
77.3465,217.870794078063
77.3762,241.232088799199
77.4058,269.371005718129
77.4354,264.553162853296
77.465,245.653548604107
77.4946,238.979818365287
77.5242,242.022880215343
77.5538,251.254624957954
77.5834,288.321897073657
77.613,331.707267833115
77.6427,430.174234779716
77.6723,625.243188698276
77.7019,820.979811574699
77.7315,954.930373360204
77.7611,770.40665993945
77.7907,596.893037336059
77.8203,402.255720053841
77.8499,363.76690211907
77.8795,370.503531786079
77.9092,445.63021534322
77.9388,534.729902455425
77.9684,542.379414732607
77.998,440.757402422636
78.0276,320.35956945845
78.0572,258.940127817018
78.0868,213.475773889634
78.1164,199.258324924319
78.146,197.485704675412
78.1757,193.919582772543
78.2053,176.81096535486
78.2349,176.268079381099
78.2645,183.792059219382
78.2941,170.524722502523
78.3237,162.441305079045
78.3533,163.567440295997
78.3829,162
78.4125,164.494450050454
78.4422,174.206861755802
78.4718,174.594885598923
78.5014,171.41237806929
78.531,166.74672048436
78.5606,171.532974427997
78.5902,163.413723511601
78.6198,178.169862092164
78.6494,205.318304172276
78.679,249.878237470564
78.7087,305.500840901447
78.7383,447.718707940789
78.7679,491.095862764888
78.7975,443.56710393539
78.8271,314.633366969384
78.8567,254.540713324358
78.8863,232.36629667003
78.9159,221.684157416758
78.9455,258.119448183045
78.9752,313.517658930374
79.0048,338.554322233441
79.0344,302.539367429344
79.064,207.897073662964
79.0936,186.598721829801
79.1232,187.653095558542
79.1528,158.548604103597
79.1824,135.385469223011
79.212,169.742261103637
79.2417,149.286579212916
79.2713,144.365623948874
79.3009,156.627187079407
79.3305,153.445677766567
79.3601,158.932391523714
79.3897,167.954927682479
79.4193,156.836473755047
79.4489,166.784056508577
79.4785,163.121089808278
79.5082,150.933378196501
79.5378,150.37537840565
79.5674,156.116380760175
79.597,157.300134589503
79.6266,145.597376387487
79.6562,156.818365287589
79.6858,153.28734858681
79.7154,159.371005718132
79.745,143.391523713421
79.7746,154.689098250335
79.8043,144.248234106964
79.8339,152.860746720485
79.8635,147.339051463171
79.8931,164.565948855987
79.9227,135.083417423478
79.9523,142.969727547931
79.9819,138.035329744278
80.0115,158.950538358007
80.0411,159.993272788429
80.0708,172.899428187019
80.1004,147.306191117086
80.13,165.693239152368
80.1596,157.18466195762
80.1892,182.361372812922
80.2188,152.896737302395
80.2484,174.234106962662
80.278,210.61810228802
80.3076,212
80.3373,197.640766902121
80.3669,220.830753701212
80.3965,246.670702993614
80.4261,269.723511604441
80.4557,306.724857046755
80.4853,380.141318977129
80.5149,557.367978472909
80.5445,735.9949545913
80.5741,863.487213997316
80.6038,908.969727547933
80.6334,956.978472922966
80.663,1249.7806191117
80.6926,1524.38916918938
80.7222,1405.98688193745
80.7518,1084.6339165545
80.7814,948.771947527726
80.811,804.037672384792
80.8406,663.639300134574
80.8703,687.042045072316
80.8999,787.358224016173
80.9295,863.257315842595
80.9591,831.773216689093
80.9887,686.773629330631
81.0183,481.586276488414
81.0479,386.648384925965
81.0775,322.842246888666
81.1071,269.643457786745
81.1368,259.443135935398
81.1664,246.280524722504
81.196,202.663975782044
81.2256,210.950538358006
81.2552,215.67036663303
81.2848,212.676757484023
81.3144,204.559555854645
81.344,229.316851664988
81.3736,226.819710729903
81.4033,220.913526244953
81.4329,207.805247225024
81.4625,220.363605785403
81.4921,201.48133198789
81.5217,246.408479138631
81.5513,246.26673393878
81.5809,281.781365623935
81.6105,251.057873485866
81.6401,253.31180625631
81.6698,232.756811301717
81.6994,229.111709286676
81.729,234.641775983854
81.7586,236
81.7882,221.462314939438
81.8178,250.477295660953
81.8474,220.906828119746
81.877,227.561238223414
81.9066,216.794483686515
81.9363,199.794147325931
81.9659,179.660948536828
81.9955,200.588156123819
82.0251,202.657248570466
82.0547,191.241170534811
82.0843,182.919582772545
82.1139,170.899091826441
82.1435,172.736966027582
82.1731,170.009084791386
82.2028,168.71207534477
82.2324,169.707702657249
82.262,193.217698519511
82.2916,175.028254288595
82.3212,172.728893373698
82.3508,174.236877523553
82.3804,161.329297006387
82.41,179.874873864776
82.4396,195.06796769852
82.4693,198.354187689203
82.4989,194.963673057517
82.5285,218.39724184326
82.5581,231
82.5877,219.781029263372
82.6173,190.399596367312
82.6469,221.644683714665
82.6765,245.647157753112
82.7061,264.640766902125
82.7357,273.722745625841
82.7654,324.01917255297
82.795,387.835183316521
82.8246,476.583445491255
82.8542,653.86579212911
82.8838,1028.91624621606
82.9134,1495.25168236875
82.943,1749.90985536492
82.9726,1508.68550285915
83.0022,1102.9545913219
83.0319,804.728129205971
83.0615,625.209889001032
83.0911,575.970063908509
83.1207,631.675302826374
83.1503,806.03128153382
83.1799,973.910191725546
83.2095,942.481493943474
83.2391,788.05718129838
83.2687,596.351833165201
83.2984,418.287685060541
83.328,323.139589640084
83.3576,280.433905146322
83.3872,250.574024226117
83.4168,241.202489068281
83.4464,226.612512613516
83.476,206.495289367428
83.5056,211.756811301714
83.5352,224.734275142952
83.5649,221.078035654224
83.5945,225.037012113053
83.6241,227.711402623613
83.6537,231.3541876892
83.6833,231.752355316287
83.7129,248.540867810297
83.7425,272.50689539186
83.7721,285.06460296097
83.8017,310.459132189704
83.8314,326.984863773967
83.861,332.466352624495
83.8906,322.773292970071
83.9202,302.729566094856
83.9498,291.63660834455
83.9794,288.476286579213
84.009,285.696602758155
84.0386,264.2334342415
84.0682,266.239569313602
84.0979,271.650184998317
84.1275,255.329969727547
84.1571,249.475100942132
84.1867,231.100571812983
84.2163,223.765220316178
84.2459,215.117765814267
84.2755,209.630676084765
84.3051,207.460477632021
84.3347,222.708277254368
84.3644,220.326942482339
84.394,211.96367305751
84.4236,246.49966352624
84.4532,276.294651866804
84.4828,283.486041035992
84.5124,269.283647375504
84.542,266.039017827113
84.5716,265.675075681128
84.6012,268.626303397237
84.6309,294.545760430689
84.6605,304.736966027578
84.6901,355.886646485029
84.7197,408.808882907123
84.7493,478.778002018161
84.7789,586.957954927663
84.8085,784.789367429322
84.8381,1103.45475950208
84.8677,1639.92129162453
84.8974,2332.83849259752
84.927,2631.45105953578
84.9566,2190.57854019512
84.9862,1586.48990578729
85.0158,1137.09418096204
85.0454,883.980827447046
85.075,821.210561722174
85.1046,931.549125168264
85.1342,1124.26471577527
85.1639,1333.24688866467
85.1935,1419.31426648722
85.2231,1174.33703329974
85.2527,840.734611503552
85.2823,599.307200538367
85.3119,458.38008745373
85.3415,353.969727547943
85.3711,292.614064602959
85.4007,265.280861083085
85.4304,226.010763538512
85.46,226.755383580082
85.4896,208.471241170533
85.5192,190.372351160443
85.5488,191.298115746972
85.5784,184.53212243525
85.608,185.214934409688
85.6376,190.719475277492
85.6672,205.662180349931
85.6968,180.764211234441
85.7265,171.495795492768
85.7561,167.884253028261
85.7857,150.323578876555
85.8153,144.059535822402
85.8449,146.770524899053
85.8745,166.226707029936
85.9041,162.553313151697
85.9337,151.14266487214
85.9633,161.721493440967
85.993,148.12916246216
86.0226,159.129205921938
86.0522,165.478304742686
86.0818,144.600403632694
86.1114,149.349142280525
86.141,154.979475100943
86.1706,137.250588631013
86.2002,136.195761856711
86.2298,145.463997308209
86.2595,143.355869492096
86.2891,143.611503531785
86.3187,141.061911170933
86.3483,158.357551294989
86.3779,145.964682139255
86.4075,153.816285329747
86.4371,164.885973763873
86.4667,142.591994618231
86.4963,149.304508748318
86.526,169.714766229397
86.5556,168.041035990587
86.5852,135.296096904445
86.6148,165.603430877898
86.6444,179.603430877906
86.674,156.728557013118
86.7036,160.360699865414
86.7332,147.88698284561
86.7628,146.782711066263
86.7925,142.738896366081
86.8221,125.657584931043
86.8517,140.297679112008
86.8813,144.613055181697
86.9109,157.820383451054
86.9405,138.161116717121
86.9701,159.111709286675
86.9997,136.439286915571
87.0293,119.7679112008
87.059,141.78196500673
87.0886,138.451059535822
87.1182,132.413387151025
87.1478,151.203834510591
87.1774,124.054845222075
87.207,141.382441977801
87.2366,129.482004709048
87.2662,119.42732166891
87.2958,129.34813319879
87.3255,137.811638076017
87.3551,131.834118438756
87.3847,99.5216952573127
87.4143,149.676421123445
87.4439,136.79475100942
87.4735,127.280188361922
87.5031,143.806256306759
87.5327,128.355989232849
87.5623,173.914900773627
87.592,150.983854692228
87.6216,145.010090817355
87.6512,144.005720053836
87.6808,152.909182643794
87.7104,133.289270097546
87.74,178.133535149678
87.7696,146.755047106321
87.7992,147.945509586276
87.8288,145.094853683149
87.8585,168.224764468377
87.8881,145.879919273462
87.9177,168.974100235453
87.9473,137.532974427989
87.9769,148.357214934413
88.0065,182.116380760171
88.0361,177.405114401077
88.0657,155.431214261693
88.0953,177.335015136232
88.125,198.586810228804
88.1546,209.283551967711
88.1842,214.61991254625
88.2138,213.160780356542
88.2434,240.466352624497
88.273,269.424823410701
88.3026,265.652203161789
88.3322,327.290376850598
88.3618,360.952573158432
88.3915,435.792801883627
88.4211,577.107335127859
88.4507,829.474268415763
88.4803,1191.6202489069
88.5099,1817.92530282648
88.5395,2356.13891691885
88.5691,2194.31987891016
88.5987,1674.18337819646
88.6283,1169.14463504872
88.6579,833.830810628966
88.6876,704.165545087475
88.7172,685.729902455432
88.7468,783.559031281515
88.7764,976.817019845321
88.806,1191.53701211306
88.8356,1307.17591658257
88.8652,984.17558022198
88.8948,737.894347240926
88.9244,515.581231079672
88.9541,407.68483013792
88.9837,320.930013458934
89.0133,269.969391187346
89.0429,249.845610494453
89.0725,210.721399730819
89.1021,202.80188361924
89.1317,187.847292297341
89.1613,174.479138627187
89.1909,189.360242179619
89.2206,168.78102926337
89.2502,159.648839556004
89.2798,166.016487213999
89.3094,176.528422468888
89.339,165.894046417761
89.3686,163.533647375505
89.3982,151.799529095189
89.4278,161.646821392535
89.4574,142.624831763129
89.4871,135
89.5167,137.246215943491
89.5463,142.467698519516
89.5759,143.259670366633
89.6055,133.432559704005
89.6351,143.172947510091
89.6647,127.628657921287
89.6943,143.141607803561
89.7239,139.057200538354
89.7536,131.84561049445
89.7832,140.992600067269
89.8128,134.35923309788
89.8424,121.537012113053
89.872,127.813656239489
89.9016,138.966027581568
89.9312,132.305518169586
89.9608,125.93541876892
89.9904,129.102926337034
