4.0001,402.841910528086
4.0297,356.047426841574
4.0593,329.136271870794
4.0889,350.792801883619
4.1185,337.193070972082
4.1482,343.898721399731
4.1778,292.979482004709
4.2074,325.210898082745
4.237,300.708613728129
4.2666,300
4.2962,291.323915237134
4.3258,296.757820383451
4.3554,286.488559892328
4.385,247.950891355533
4.4147,279.257652203162
4.4443,250.722745625841
4.4739,250.883619239825
4.5035,300.684157416751
4.5331,307.733512786003
4.5627,265.264715775311
4.5923,259.226034308779
4.6219,247.032301480485
4.6515,268.906155398587
4.6812,246.288597376388
4.7108,220.309555854644
4.7404,216.186343760511
4.77,251.19576185671
4.7996,222.669021190717
4.8292,238.668236877523
4.8588,246.338042381433
4.8884,230.179280188362
4.918,232.406123822342
4.9477,220.676421123444
4.9773,211.117053481332
5.0069,217.846231493943
5.0365,219.867473932055
5.0661,205.32727884292
5.0957,215.026244952894
5.1253,193.068617558022
5.1549,197.503195425496
5.1845,186.306527590848
5.2142,196.679112008073
5.2438,197.318197107299
5.2734,201.184051144011
5.303,198.670030272452
5.3326,205.453077699294
5.3622,173.226370669358
5.3918,202.064602960969
5.4214,193.693239152371
5.451,200.542549613185
5.4807,213.532974427995
5.5103,200.687521022536
5.5399,184.976791120081
5.5695,185.189771197847
5.5991,205.035317860747
5.6287,188.703329969728
5.6583,172.799461641992
5.6879,192.630339724184
5.7175,208.311806256307
5.7471,194.018842530282
5.7768,189
5.8064,197.432223343424
5.836,185.51833165153
5.8656,159.773889636608
5.8952,195.965691220989
5.9248,202.505886310125
5.9544,196.273553162853
5.984,180.179952909519
6.0136,191.205852674067
6.0433,201.415208613728
6.0729,183.978809283552
6.1025,169.727884291961
6.1321,171.338492597577
6.1617,194.564076690212
6.1913,189.425832492432
6.2209,188.261776581427
6.2505,191.412041708712
6.2801,178.668684830138
6.3098,191.222745625841
6.3394,192.033972418433
6.369,184.15438950555
6.3986,188.190716448032
6.4282,178.693135935397
6.4578,185.909519004373
6.4874,197.400605449041
6.517,191.277927321669
6.5466,175
6.5763,160.346451395896
6.6059,171.21467025572
6.6355,171.770265724857
6.6651,172.570131180626
6.6947,165.269179004038
6.7243,161.933400605449
6.7539,176.441977800202
6.7835,180.820323014805
6.8131,180.263370332997
6.8428,170.909182643794
6.8724,164.373696602758
6.902,171.465679676985
6.9316,179.70736629667
6.9612,177.091826437942
6.9908,176.437415881561
7.0204,167.107971745712
7.05,175.018499831819
7.0796,190.369111709287
7.1093,177.916246215943
7.1389,178.2351160444
7.1685,190.1100269179
7.1981,182.507568113018
7.2277,172.107299024554
7.2573,165.979475100942
7.2869,160.149344096872
7.3165,172.709720820719
7.3461,167.714333781965
7.3758,171.821392532795
7.4054,176.098553649512
7.435,170.655903128153
7.4646,180.21668909825
7.4942,173.954591321897
7.5238,170.548604103599
7.5534,181.814939434724
7.583,192.369323915237
7.6126,195.367978472923
7.6423,190.897711978466
7.6719,182.222334342415
7.7015,182.203834510595
7.7311,186.461641991925
7.7607,202.291624621594
7.7903,184.714093508242
7.8199,174.5
7.8495,196.512613521695
7.8791,194.017154389506
7.9088,193
7.9384,193
7.968,189.143962327615
7.9976,177.357887655566
8.0272,168.526581426649
8.0568,179.73057517659
8.0864,186.027245206861
8.116,187.67328398385
8.1456,195.348469559368
8.1753,189.178271106626
8.2049,194.670592193809
8.2345,197.294651866801
8.2641,188.557349478641
8.2937,199.837483176312
8.3233,205.012445341406
8.3529,185.551967709384
8.3825,189.769179004038
8.4121,208.264379414733
8.4418,204.954591321897
8.4714,207.153716784393
8.501,215.469717362046
8.5306,216.338042381433
8.5602,231.436259670367
8.5898,246.380215343203
8.6194,240.440295997308
8.649,208.875882946519
8.6786,213.656796769852
8.7082,233.967373023881
8.7379,245.81096535486
8.7675,248.231493943472
8.7971,241.627312478977
8.8267,236.21190716448
8.8563,227.271870794078
8.8859,240.396232761521
8.9155,259.955936764211
8.9451,250.053481331988
8.9747,250.612382234186
9.0044,255.960645812311
9.034,262.798183652876
9.0636,249.362382234186
9.0932,259.666666666667
9.1228,271
9.1524,278.792732166891
9.182,272.561385805584
9.2116,241.441305079044
9.2412,278.247644683715
9.2709,276.644130507905
9.3005,270.681130171544
9.3301,281.117429340511
9.3597,284.806592667339
9.3893,288.761520349815
9.4189,298.336810228803
9.4485,279.715438950555
9.4781,282.435923309787
9.5077,300.401278170198
9.5374,292.655450874832
9.567,296.72822065254
9.5966,306.428859737638
9.6262,322.370121130551
9.6558,298.654894046418
9.6854,331.236125126135
9.715,325.495289367429
9.7446,313.768920282543
9.7742,313.143962327615
9.8039,316.977119784656
9.8335,305.103935418768
9.8631,329.162125798856
9.8927,331.403095558546
9.9223,341.457114026236
9.9519,379.405314497142
9.9815,331.103935418768
10.0111,348.772207267832
10.0407,323.585267406659
10.0704,344.588294651867
10.1,350.658815612382
10.1296,377.84090144635
10.1592,364.613858055836
10.1888,366.208950201884
10.2184,380.923309788093
10.248,388.425496131853
10.2776,396.433041722746
10.3072,363.406323578877
10.3369,369.53212243525
10.3665,350.328398384926
10.3961,380.988900100908
10.4257,358.536831483351
10.4553,399.694481830417
10.4849,378.694248234107
10.5145,398.50454086781
10.5441,421.899428187017
10.5737,401.087483176312
10.6034,390.087117389842
10.633,392.528422468886
10.6626,366.43405114401
10.6922,391.231079717457
10.7218,400.474941136899
10.7514,405.372812920592
10.781,413.131516986209
10.8106,391.695257315843
10.8402,405.187079407806
10.8699,397.899091826438
10.8995,394.972754793138
10.9291,377.475100942126
10.9587,392.616885301043
10.9883,398.748738647831
11.0179,397.905146316851
11.0475,416.173283983848
11.0771,371.413050790447
11.1067,402.800201816347
11.1364,400.328061911171
11.166,406.969727547931
11.1956,435.74201143626
11.2252,414.366083445492
11.2548,403.731584258325
11.2844,416.890010090818
11.314,392.879878869448
11.3436,390
11.3732,391.233097880928
11.4029,428.908142664872
11.4325,426.372014799865
11.4621,438.312815338043
11.4917,364.838156123821
11.5213,411.317188025564
11.5509,433.952909519005
11.5805,428.883955600403
11.6101,405.995289367429
11.6397,399.023553162853
11.6693,424.798856374034
11.699,403.192398250924
11.7286,425.705921938088
11.7582,385.703329969729
11.7878,416.311133535149
11.8174,401.409152086138
11.847,422.341405987219
11.8766,403.686175580222
11.9062,405.884925975774
11.9358,382.067944836865
11.9655,401.081735620585
11.9951,382.955585464333
12.0247,409.488059199462
12.0543,429.869828456105
12.0839,408.461150353178
12.1135,430.376514131898
12.1431,429.207870837538
12.1727,428.0736629667
12.2023,447.367765814266
12.232,444.393541876892
12.2616,444.916918937101
12.2912,423.091520861373
12.3208,410.097880928355
12.3504,471.385469223008
12.38,454.598250336474
12.4096,431.398250924991
12.4392,398.693911873529
12.4688,421.618438761777
12.4985,463.997645475949
12.5281,446.069626639757
12.5577,462.312920592193
12.5873,437.920618903464
12.6169,419.224352505886
12.6465,379.814328960647
12.6761,383.467698519515
12.7057,387.56912209889
12.7353,397.372014799865
12.765,381.974427994616
12.7946,406.102589976455
12.8242,400.889001009082
12.8538,373.845222072679
12.8834,371.502522704339
12.913,398.553649512278
12.9426,384.183041722746
12.9722,389.856710393542
13.0018,390.365960309452
13.0315,374.490578734858
13.0611,390.487386478305
13.0907,403.883619239825
13.1203,352.986881937438
13.1499,378.358008075369
13.1795,358.591658257652
13.2091,380.246552304069
13.2387,367.555181695828
13.2683,380.768920282544
13.298,371.160443995964
13.3276,382.538358008076
13.3572,342.188025563404
13.3868,353.583921964346
13.4164,357.943472409152
13.446,366.87790110999
13.4756,345.825092499159
13.5052,392.096904441453
13.5348,353.970736629667
13.5645,352.15909855365
13.5941,378.773889636608
13.6237,369.034308779011
13.6533,377.665321224353
13.6829,369.151025899764
13.7125,366.174293405114
13.7421,343.944500504541
13.7717,365.076690211908
13.8013,378.423956931359
13.831,366.911873528423
13.8606,366.240161453078
13.8902,377.835800807537
13.9198,361.051463168516
13.9494,349.918264379415
13.979,354.518169582773
14.0086,343.975445677766
14.0382,335.956609485368
14.0678,362.07940780619
14.0975,351.337033299697
14.1271,353.434241506894
14.1567,353.324360699865
14.1863,355.969727547931
14.2159,366.907164480323
14.2455,353.98150016818
14.2751,343.699192462988
14.3047,352.04608139926
14.3343,336.46316851665
14.364,348.07537012113
14.3936,327.253279515639
14.4232,332.661957618565
14.4528,336.948855989233
14.4824,355.334006054491
14.512,345.216952573157
14.5416,358.924293405113
14.5712,334.82946518668
14.6008,324.383451059536
14.6304,349.462987886945
14.6601,348.770265724857
14.6897,354.544904137235
14.7193,348.174907500841
14.7489,329.167563930013
14.7785,338.199461823075
14.8081,344.938446014127
14.8377,352.944818304173
14.8673,338.127480659266
14.8969,320.432559704003
14.9266,327.932705248991
14.9562,330.063235788765
14.9858,332.022199798184
15.0154,329.907806191117
15.045,319.503868146653
15.0746,320.452404978137
15.1042,307.145356662179
15.1338,301.126135216952
15.1634,329.765893037334
15.1931,353.316285329744
15.2227,347.45173225698
15.2523,330.67743020518
15.2819,329.705348133199
15.3115,327.797442799462
15.3411,329.674402959972
15.3707,326.870501177263
15.4003,309.478129205922
15.4299,314.939455095862
15.4596,335.439959636731
15.4892,329.724427994616
15.5188,306.214934409686
15.5484,299.902119071645
15.578,304.438425302826
15.6076,307.425832492432
15.6372,326.423477968382
15.6668,338.999663526244
15.6964,316.20013454423
15.7261,299
15.7557,299.914228052472
15.7853,315.945491251681
15.8149,328.615539858729
15.8445,318.889673730239
15.8741,315.440107671602
15.9037,320.795156407669
15.9333,316.642785065591
15.9629,302.57267833109
15.9926,306.26505213589
16.0222,312.844265052136
16.0518,311.492597577389
16.0814,305.517658930373
16.111,309.368314833502
16.1406,315.948855989232
16.1702,307.594349142281
16.1998,302.810292633703
16.2294,295.899730820996
16.2591,302.877901109989
16.2887,319.031281533804
16.3183,311.445005045409
16.3479,307.915208613727
16.3775,294.871846619576
16.4071,303.179952909519
16.4367,302.856325706596
16.4663,285.192061890346
16.4959,291.287588294653
16.5256,305.505720053836
16.5552,308.747729566094
16.5848,326.130171543895
16.6144,318.258411843876
16.644,295.733266061218
16.6736,301.659939455096
16.7032,304.292059219382
16.7328,308.794483686512
16.7624,299.866801210898
16.7921,303.824083417424
16.8217,299.120457604307
16.8513,318.322906155399
16.8809,323.110326269762
16.9105,291.516823687752
16.9401,307.399596367305
16.9697,301.069626639758
16.9993,307.165545087483
17.0289,307.701984527413
17.0586,304.289942818702
17.0882,307.180349932705
17.1178,300.833501513623
17.1474,293.42885973764
17.177,277.152086137281
17.2066,298.819374369324
17.2362,292.867473932055
17.2658,298.692462987887
17.2954,289.981836528759
17.3251,286.010090817356
17.3547,290.27177934746
17.3843,284.757402422611
17.4139,275.891691893712
17.4435,257.491422805247
17.4731,286.596231493944
17.5027,295.454759502186
17.5323,274.106626303397
17.5619,282.557537012112
17.5915,293.464177598385
17.6212,279.569122098889
17.6508,297.771870794077
17.6804,277.662966700302
17.71,299.566767574841
17.7396,326.298452220727
17.7692,308.139253279516
17.7988,292.832156071309
17.8284,282.457450386814
17.858,298.177658142665
17.8877,300.061553985873
17.9173,300.513622603432
17.9469,277.149394347241
17.9765,272.431886982846
18.0061,295.159771274807
18.0357,294.600942126514
18.0653,289.875882946518
18.0949,302.766229397915
18.1245,288.279946164198
18.1542,321.239152371341
18.1838,369.677430205179
18.2134,408.060565275906
18.243,499.419778002024
18.2726,734.97140935083
18.3022,828.342530282632
18.3318,624.823074335684
18.3614,489.119071644804
18.391,383.663303060883
18.4207,350.986877523553
18.4503,309.410359905819
18.4799,309.56239488732
18.5095,277.906123822342
18.5391,277.808274470232
18.5687,286.170871173898
18.5983,288.243270524899
18.6279,289.459468550286
18.6575,270.564076690212
18.6872,266.361709286676
18.7168,283.864783047427
18.7464,283.327951564077
18.776,302.411170928667
18.8056,293.438614194416
18.8352,300.545913218971
18.8648,289.83417423478
18.8944,246.50201884253
18.924,279.982845610496
18.9537,254.329969727548
18.9833,262.547779273217
19.0129,250.158425832493
19.0425,289.402959973092
19.0721,264.746298788695
19.1017,251.89169189371
19.1313,245.044399596367
19.1609,249.242261103635
19.1905,284.921964345777
19.2202,256.013454423142
19.2498,263.978472922974
19.2794,248.107671601615
19.309,262.833501513623
19.3386,244.293979145645
19.3682,278.316958277256
19.3978,287.785065590313
19.4274,267.593340060545
19.457,223.468213925329
19.4867,228.766823687752
19.5163,265.568449377734
19.5459,273.705684493778
19.5755,287.35464333782
19.6051,281.353178607468
19.6347,264.932055163135
19.6643,270.587819650067
19.6939,300.976454759502
19.7235,282.487386478305
19.7532,277.273216689098
19.7828,313.166498486378
19.8124,280.004036326942
19.842,294.459286675639
19.8716,288.683484695593
19.9012,306.203834510595
19.9308,266.332324251596
19.9604,248.473755047106
19.99,278.409350824082
20.0197,300.824419778001
20.0493,269.091520861371
20.0789,265.887991927346
20.1085,269.534476959301
20.1381,264.722745625841
20.1677,273.627312478978
20.1973,283.708375378406
20.2269,266.798115746972
20.2565,310.571140262364
20.2862,293.018836192399
20.3158,315.577388963662
20.3454,314.028927009755
20.375,272.265388496465
20.4046,292.870121130552
20.4342,303.04137235116
20.4638,305.671712075345
20.4934,270.246215943491
20.523,272.92866756393
20.5526,279.115371678439
20.5823,265.20282542886
20.6119,275.905450874831
20.6415,252.149344096872
20.6711,259.757820383451
20.7007,270.246635262449
20.7303,292.822737975109
20.7599,270.122435250587
20.7895,301.034993270522
20.8191,344.099899091828
20.8488,376.612512613523
20.8784,369.689434724092
20.908,341.861083081064
20.9376,305.576522031619
20.9672,317.018163471241
20.9968,316.873485868102
21.0264,290.63134880592
21.056,273.914228052473
21.0856,259.704576043069
21.1153,289.092499159098
21.1449,280.559031281533
21.1745,273.256393001346
21.2041,240.469895728219
21.2337,256.928018836192
21.2633,250.191117092868
21.2929,261.436932391522
21.3225,257.889673730239
21.3521,263.334454912517
21.3818,246.203498150018
21.4114,244.41473259334
21.441,257.629205921938
21.4706,239.461150353179
21.5002,248.899091826437
21.5298,250.73965691221
21.5594,211.352960969045
21.589,245.164480322903
21.6186,256.392196434577
21.6483,257.820323014804
21.6779,242.022536158764
21.7075,244.447695930037
21.7371,274.092866756392
21.7667,289.989909182643
21.7963,283.412041708712
21.8259,277.030619111709
21.8555,277.304406323579
21.8851,259.860746720485
21.9148,288.822341857337
21.9444,299.072653884964
21.974,315.344433232425
22.0036,379.991254624957
22.0332,436.454912516823
22.0628,428.226034308781
22.0924,380.452068617558
22.122,310.015477792734
22.1516,274.710057181298
22.1813,267.105280861083
22.2109,261.56931359354
22.2405,256.982845610494
22.2701,239.424487050118
22.2997,243.872139973084
22.3293,250.4561049445
22.3589,246.827447023209
22.3885,253.56729475101
22.4181,247.442650521359
22.4478,250.537167843928
22.4774,250.409825033648
22.507,252.526740665995
22.5366,247.15438950555
22.5662,235.761183989237
22.5958,234.555518169583
22.6254,238.859064917592
22.655,245.281533804238
22.6846,236.059892328399
22.7143,227.083753784057
22.7439,245.737638748738
22.7735,256.733512786003
22.8031,246.121762529432
22.8327,245.771947527749
22.8623,254.643674293405
22.8919,254.902119071645
22.9215,262.238816010764
22.9511,273.015477792732
22.9808,276.02758156744
23.0104,286.040363269425
23.04,311.933400605448
23.0696,334.445491251682
23.0992,363.976791120081
23.1288,373.497477295661
23.1584,321.35666218035
23.188,287.33871510259
23.2176,302.342078708375
23.2473,301.319650067295
23.2769,300.493777329296
23.3065,298.936427850657
23.3361,271.574697173621
23.3657,278.097544567776
23.3953,296.801547258661
23.4249,295.876850605652
23.4545,303.491422805247
23.4841,311.87352842247
23.5137,307.900403768506
23.5434,321.218634376052
23.573,342.704675412042
23.6026,335.38546922301
23.6322,314.391655450875
23.6618,321.015136226034
23.6914,320.987554658594
23.721,336.288358008076
23.7506,358.091826437941
23.7802,384.575512949882
23.8099,387.436742934052
23.8395,410.063235788767
23.8691,459.166498486378
23.8987,508.689098250339
23.9283,621.901109989907
23.9579,763.227043390512
23.9875,1065.31157469718
24.0171,1622.2610158089
24.0467,2699.93340060554
24.0764,5138.2270433907
24.106,10099.6352624497
24.1356,15458.7810292633
24.1652,15260.4436596033
24.1948,11180.9973082102
24.2244,7658.06962663968
24.254,3584.86680121086
24.2836,1727.01884253024
24.3132,1107.02354524051
24.3429,818.835183316507
24.3725,646.362045760434
24.4021,545.839556004036
24.4317,516.968045745039
24.4613,478.699865410494
24.4909,404.532122435252
24.5205,372.491422805247
24.5501,360.969044414534
24.5797,345.519677093845
24.6094,346.984863773965
24.639,322.513958964009
24.6686,305.418236877523
24.6982,306.204843592331
24.7278,302.852001345442
24.7574,318.688088829072
24.787,322.530440632359
24.8166,287.589303733602
24.8462,290.645693135936
24.8759,329.830474268415
24.9055,325.352842246892
24.9351,286.756729475101
24.9647,288.135216952573
24.9943,299.677093844601
25.0239,283.169582772544
25.0535,278.40329633367
25.0831,288.452404978136
25.1127,275.230070635722
25.1424,275.893674293406
25.172,254.923309788093
25.2016,271.349478641104
25.2312,274.139973082098
25.2608,254.667339387824
25.2904,258.574167507567
25.32,239.681022880216
25.3496,267.192398250925
25.3792,265.743693239152
25.4089,250.574697173621
25.4385,226.817019845274
25.4681,233.322906155398
25.4977,266.825706594886
25.5273,263.106626303397
25.5569,248.336696939119
25.5865,245.323014804845
25.6161,245.740665993946
25.6457,236.8573831147
25.6754,227.888664648504
25.705,244.590847913863
25.7346,245.271106626304
25.7642,231.228052472249
25.7938,242.571332436069
25.8234,225.822401614531
25.853,217.114698957282
25.8826,214.053499327052
25.9122,236
25.9419,233.893037336025
25.9715,221.494279946165
26.0011,245.197443659605
26.0307,216.189707366295
26.0603,234.00067294751
26.0899,224.52068617558
26.1195,220.457450386815
26.1491,224.912882610158
26.1787,222.34454912517
26.2084,204.574503868146
26.238,212.631685166497
26.2676,232.146702557201
26.2972,234
26.3268,235.622939791455
26.3564,258.454912516824
26.386,249.095862764883
26.4156,234.208543558695
26.4452,239.767833109018
26.4748,275.087453750421
26.5045,277.897073662966
26.5341,301.068640646033
26.5637,383.592330978799
26.5933,552.0763538513
26.6229,910.028263795422
26.6525,866.972418432568
26.6821,593.754793138245
26.7117,633.970736629667
26.7413,399.108344549126
26.771,293.992263706693
26.8006,293.043726875211
26.8302,305.986881937437
26.8598,281.126177658143
26.8894,281
26.919,249.441305079044
26.9486,261.768169582773
26.9782,265.911200807265
27.0078,232.903464513958
27.0375,227.136271870794
27.0671,227
27.0967,220.251934073326
27.1263,243.039030955586
27.1559,245.911200807265
27.1855,226.975445677767
27.2151,234.521695257315
27.2447,221.800807537013
27.2743,202.231079717458
27.304,208.499495459132
27.3336,203.399730820996
27.3632,218.793474604777
27.3928,223.698620921628
27.4224,227.682368775235
27.452,228.916246215943
27.4816,285.536158762195
27.5112,268.304845222072
27.5408,219.019845274131
27.5705,236.561385805584
27.6001,218.337146702558
27.6297,207.953582240162
27.6593,204.330978809284
27.6889,216.398384925975
27.7185,218
27.7481,209.231079717457
27.7777,221.960309451732
27.8073,205.762786002693
27.837,234.229061553982
27.8666,237.273797510932
27.8962,278.232839838489
27.9258,309.786074672047
27.9554,315.700639085099
27.985,278.76581426649
28.0146,267.790447359569
28.0442,216.747729566094
28.0738,225.335800807537
28.1035,204.025227043391
28.1331,192.375042045072
28.1627,229.72913862719
28.1923,200.293306424485
28.2219,222.16750756811
28.2515,214.402623612511
28.2811,219.06864064603
28.3107,206.553985872856
28.3403,189.430877901109
28.37,207.530955585465
28.3996,209.827447023209
28.4292,201.112344433233
28.4588,191.938088829071
28.4884,201.705348133199
28.518,202.672048435923
28.5476,178.072005383582
28.5772,216.286915573496
28.6068,220.841574167507
28.6365,211.137954239569
28.6661,216.581567440297
28.6957,210.708375378406
28.7253,204.251682368775
28.7549,191.073999327278
28.7845,197.374032963337
28.8141,215.732593340061
28.8437,208.54744279946
28.8733,190.163807601748
28.903,197.362596703666
28.9326,209.953903095558
28.9622,225.938446014128
28.9918,215.282542885975
29.0214,196.924966352623
29.051,198.354187689202
29.0806,205.209889001009
29.1102,217.46265141319
29.1398,206.74873864783
29.1695,198.615539858728
29.1991,220.706931359355
29.2287,222.794147325933
29.2583,222.397241843256
29.2879,240.876892028254
29.3175,228.872139973084
29.3471,273
29.3767,326.491759165828
29.4063,359.744279946165
29.4359,365.422805247225
29.4656,365.611503531786
29.4952,352.728129205922
29.5248,315.998990918267
29.5544,282.077362933063
29.584,280.903095558547
29.6136,282.209889001009
29.6432,300.073999327278
29.6728,307.637954239569
29.7024,290.765220316179
29.7321,265.316851664986
29.7617,289.368775235529
29.7913,312.828456104945
29.8209,326.707366296671
29.8505,414.297679112004
29.8801,475.351951547779
29.9097,417.028254288595
29.9393,335.958627648837
29.9689,292.4865410498
29.9986,282.914564413051
30.0282,269.957954927681
30.0578,271.061574697174
30.0874,271.448032290615
30.117,271.789101917255
30.1466,270.822678331089
30.1762,277.704339051464
30.2058,291.42381432896
30.2354,301.585464333782
30.2651,302.616548940463
30.2947,290.303060881263
30.3243,298.0972082072
30.3539,302.4401076716
30.3835,304.02320887992
30.4131,327.265724857046
30.4427,349.355316285329
30.4723,362.697948200472
30.5019,374.677093844602
30.5316,377.410497981157
30.5612,406.040363269423
30.5908,443.554658594013
30.6204,474.500000000002
30.65,524.285570131178
30.6796,574.079717457116
30.7092,673.056527590846
30.7388,807.512613521701
30.7684,1025.47292297341
30.7981,1321.70390309554
30.8277,1779.09788092835
30.8573,2655.42986881941
30.8869,4218.72082071985
30.9165,7033.90343203247
30.9461,10438.1839892366
30.9757,11067.4742684155
31.0053,8908.07335127857
31.0349,7398.77699293639
31.0646,5620.08745375041
31.0942,3331.30753701204
31.1238,1995.69626639763
31.1534,1357.44197780018
31.183,1034.53903095558
31.2126,794.84628321561
31.2422,688.045072317522
31.2718,613.944481830418
31.3014,552.123107971749
31.3311,512.522704339051
31.3607,489.736293306423
31.3903,433.619784656798
31.4199,405.204507231753
31.4495,381
31.4791,380.613728129206
31.5087,381.910528086108
31.5383,384.244534140599
31.5679,396.072005383578
31.5976,395.266061217624
31.6272,376.889001009079
31.6568,425.562584118436
31.6864,501.386814665316
31.716,600.243861419443
31.7456,592.76177658143
31.7752,494.542885973775
31.8048,391.600739993273
31.8344,391.061911170928
31.8641,395.622939791456
31.8937,394
31.9233,403.342078708375
31.9529,402.32469717362
31.9825,400.115035317861
32.0121,410.125126135219
32.0417,457.476446837146
32.0713,504.081735620582
32.1009,531.526740665992
32.1306,461.818640646036
32.1602,381.806592667339
32.1898,391.641103262701
32.2194,404.617765814268
32.249,362.285570131181
32.2786,379.028254288597
32.3082,418.615410497981
32.3378,415.818365287588
32.3674,424.173562058526
32.397,436.511268079381
32.4267,425.315612382234
32.4563,426.928018836192
32.4859,430.930373360241
32.5155,462.253028263795
32.5451,470.969727547932
32.5747,481.595021863437
32.6043,488.635935397036
32.6339,483.674739320551
32.6635,555.078708375377
32.6932,585.121803499328
32.7228,584.320887991926
32.7524,641.9357551295
32.782,705.551816958279
32.8116,758.575176589301
32.8412,843.201816347111
32.8708,994.447510094218
32.9004,1173.09519004373
32.93,1410.18466195764
32.9597,1868.55062226702
32.9893,2593.09892328402
33.0189,3695.58728557017
33.0485,5825.30137907822
33.0781,11055.7648048446
33.1077,23747.7278842933
33.1373,43786.1866801213
33.1669,47722.5225437423
33.1965,32684.2065253954
33.2262,29717.1564076692
33.2558,24028.415545088
33.2854,11791.7874201144
33.315,5735.93541876877
33.3446,3378.2769179004
33.3742,2147.46081399261
33.4038,1751.63975782041
33.4334,1458.23317631223
33.463,1213.38647830474
33.4927,1214.18768920282
33.5223,1311.09249915911
33.5519,1369.75504710631
33.5815,1222.3760511268
33.6111,1042.59636730575
33.6407,979.217362045754
33.6703,810.489741002344
33.6999,696.918937100575
33.7295,624.446837146699
33.7592,583.593676421126
33.7888,534.984863773968
33.8184,500.411843876179
33.848,478.760174907502
33.8776,442.193743693237
33.9072,480.335800807534
33.9368,431.815338042382
33.9664,472.137907837205
33.996,445.121426168858
34.0257,500.475437415882
34.0553,514.755129498828
34.0849,624.069626639762
34.1145,557.916890982506
34.1441,482.02051799529
34.1737,428.620585267406
34.2033,416.591184387617
34.2329,401.744702320888
34.2625,390.943491422805
34.2922,387.768169582773
34.3218,375.565422132523
34.3514,415.943491422806
34.381,410.020188425303
34.4106,413.978809283551
34.4402,393.070635721493
34.4698,401.930373360242
34.4994,373.341520861369
34.529,370.04843592331
34.5587,404.399596367305
34.5883,369.774974772954
34.6179,376.795423956931
34.6475,429.383451059535
34.6771,363.401614530774
34.7067,415.813593539702
34.7363,383.537840565083
34.7659,401.058190380086
34.7955,376.380888290713
34.8252,419.549613185334
34.8548,369.164480322913
34.8844,410.153432032305
34.914,403.649175916582
34.9436,439.29767911201
34.9732,400.300807537015
35.0028,409.912209889001
35.0324,455.978472922974
35.062,474.616885301044
35.0917,487.867092866756
35.1213,494.451059535822
35.1509,579.988900100914
35.1805,579.999327052491
35.2101,615.724857046756
35.2397,694.87386478304
35.2693,800.713660834454
35.2989,907.475277497471
35.3285,1080.77901109991
35.3581,1170.33613728129
35.3878,1273.46754120417
35.4174,1495.5973763875
35.447,1804.6887617766
35.4766,2283.53784056508
35.5062,3198.3847965019
35.5358,5397.42328398372
35.5654,11270.0124453411
35.595,25267.1937436951
35.6246,35170.7137571473
35.6543,25410.4468371465
35.6839,20051.6051126812
35.7135,20508.6784392868
35.7431,13261.1810228806
35.7727,6385.196770938
35.8023,3349.76925664302
35.8319,2077.68506056529
35.8615,1527.01984527417
35.8911,1180.01412714431
35.9208,949.675639300134
35.9504,766.743693239155
35.98,715.103599058192
36.0096,611.370121130544
36.0392,603.873864783047
36.0688,535.488395560045
36.0984,518.11066263034
36.128,480.322341857332
36.1576,444.383787420112
36.1873,440.072990245543
36.2169,400.501009421267
36.2465,374.322906155399
36.2761,375.288261015809
36.3057,355.962314939431
36.3353,363.941136898756
36.3649,369.742684157417
36.3945,358.921601615074
36.4241,319.754793138242
36.4538,333.397578203832
36.4834,325.50067294751
36.513,363.941136898755
36.5426,356.503531786076
36.5722,345.56729475101
36.6018,312.244534140598
36.6314,313.15405314497
36.661,323.923309788093
36.6906,332.991924629879
36.7203,317.146316851661
36.7499,319.408678102927
36.7795,300.547779273217
36.8091,281.773965691222
36.8387,286.85469223007
36.8683,288.292059219381
36.8979,269.509249915911
36.9275,282.3871510259
36.9571,273.074024226109
36.9868,285.552304069965
37.0164,295.023208879919
37.046,289.416554508748
37.0756,291.553649512277
37.1052,298.523040699629
37.1348,295.224016145308
37.1644,307.940444145356
37.194,328.400605449043
37.2236,341.918937100572
37.2533,367.358681022878
37.2829,429.291960982171
37.3125,514.142280524722
37.3421,655.696837146705
37.3717,779.838546922303
37.4013,699.495459132178
37.4309,607.72913862719
37.4605,592.811301715438
37.4901,524.658594012777
37.5198,428.391318977121
37.5494,388.28826101581
37.579,344.078372014806
37.6086,313.258748317632
37.6382,310.847628657921
37.6678,288.271106626301
37.6974,257.813992600068
37.727,252.632570659488
37.7566,243.024217961656
37.7863,232.558022199798
37.8159,221.36944818304
37.8455,219.14497140935
37.8751,229.361923982509
37.9047,225.966352624494
37.9343,227.515640766902
37.9639,213.766565758491
37.9935,207.621803499326
38.0231,208.56710393542
38.0528,206.27648839556
38.0824,204.736204576043
38.112,199.029263370333
38.1416,189.79482004709
38.1712,207.317860746721
38.2008,217.444481830418
38.2304,195.527749747729
38.26,197.889673730239
38.2896,202.577725437416
38.3192,205.78573831147
38.3489,208.163134880592
38.3785,191.972072678331
38.4081,202.338042381431
38.4377,204.396569122098
38.4673,207.934724091515
38.4969,215.100235452403
38.5265,185.916246215944
38.5561,191.992934051144
38.5857,197.550285906492
38.6154,193.410359905818
38.645,193.88930013459
38.6746,192.074672048436
38.7042,192.898082744702
38.7338,215.631012445342
38.7634,205.206594885593
38.793,187.847965018501
38.8226,194.787083753785
38.8522,195.679676985198
38.8819,221.205852674068
38.9115,220.994281870164
38.9411,212.86137281292
38.9707,213.183989236462
39.0003,206.569122098891
39.0299,221.415881561238
39.0595,232.118398923647
39.0891,235.978472922971
39.1187,265.663526244953
39.1484,277.01648166835
39.178,288.949545913212
39.2076,407.449377732929
39.2372,662.983849259778
39.2668,938.350824083419
39.2964,919.341069626657
39.326,714.23183041724
39.3556,640.415068953907
39.3852,656.479650185001
39.4149,505.088156123809
39.4445,403.279179280186
39.4741,331.518668012116
39.5037,269.692462987886
39.5333,263.653212243525
39.5629,251.788429196101
39.5925,220.184387617766
39.6221,221.728557013119
39.6517,233.716448032294
39.6814,221.63930013459
39.711,235.216279852003
39.7406,216.899428187016
39.7702,210.617558022199
39.7998,223.708613728129
39.8294,218.403969054825
39.859,209.545913218972
39.8886,217.393001345895
39.9182,226.489404641777
39.9479,237.718466195762
39.9775,234.652759084791
40.0071,248.674739320552
40.0367,246.303397241843
40.0663,250.256393001346
40.0959,249.486377396569
40.1255,241.777329297007
40.1551,238.820995962311
40.1847,265.747729566094
40.2144,281.61520349815
40.244,268.615539858728
40.2736,263.180013458952
40.3032,301.065926673394
40.3328,300.074335687859
40.3624,323.9700538358
40.392,307.562058526738
40.4216,349.829128826101
40.4512,339.51446837147
40.4809,361.61049445005
40.5105,367.584258324923
40.5401,384.727456258412
40.5697,404.582240161454
40.5993,456.093844601406
40.6289,544.025908479146
40.6585,665.597712748077
40.6881,802.80322906155
40.7177,1014.68203230147
40.7474,1425.17255297681
40.777,2454.74537504204
40.8066,4953.9936091489
40.8362,9047.0888290711
40.8658,10571.6034308778
40.8954,6813.08409014447
40.925,5561.94481830406
40.9546,6315.01143625967
40.9842,5159.8042381432
41.0139,2788.48855989228
41.0435,1900.45105953584
41.0731,1710.94954591321
41.1027,1961.11238223419
41.1323,2242.47830474268
41.1619,2105.828456105
41.1915,1716.75370121131
41.2211,1702.69458459466
41.2507,1498.32357887654
41.2803,1215.89909182646
41.31,983.314602960946
41.3396,759.451059535832
41.3692,611.231079717457
41.3988,598.945491251685
41.4284,546.606794483683
41.458,466.585267406658
41.4876,424.434387617764
41.5172,442.072653884963
41.5468,411.724857046753
41.5765,377.29542395693
41.6061,397.506559031281
41.6357,386.679112008075
41.6653,342.400740242259
41.6949,330.420450723176
41.7245,339.585603767239
41.7541,329.03331090175
41.7837,329.824419778003
41.8133,323.775983854692
41.843,315.095526404306
41.8726,319.019515477793
41.9022,319.876219307097
41.9318,311.988900100908
41.9614,311.087483176311
41.991,323.873528422474
42.0206,277.079044735962
42.0502,328.685166498485
42.0798,308.21197846568
42.1095,297.12209889001
42.1391,268.448705011771
42.1687,301.336473755047
42.1983,294.19105280861
42.2279,326.067608476284
42.2575,302.807537012113
42.2871,296.219979818365
42.3167,294.082071981164
42.3463,291.136226034309
42.376,311.031965006729
42.4056,290.160443995967
42.4352,326.80692902792
42.4648,294.178667563932
42.4944,312.608812647158
42.524,314.932391523713
42.5536,310.358344549125
42.5832,298.912209889
42.6128,315.47258661285
42.6425,271.054508748318
42.6721,273.401950891355
42.7017,266.718466195762
42.7313,280.497981157471
42.7609,277.491086444669
42.7905,269.820719811638
42.8201,281.506729475102
42.8497,299.002018163471
42.8793,272.691893710057
42.909,285.788765556678
42.9386,289.759084791386
42.9682,295.25126135217
42.9978,273.358224016146
43.0274,293.402422611038
43.057,290.100571812983
43.0866,292.432223343424
43.1162,291.292059219381
43.1458,279.954591321897
43.1755,300.064581231079
43.2051,304
43.2347,295.597712748066
43.2643,265.580894719138
43.2939,289.943472409151
43.3235,273.658930373361
43.3531,301.922973427518
43.3827,358.940800538173
43.4123,385.47745625841
43.442,518.371342078698
43.4716,850.672048435892
43.5012,1104.7762449529
43.5308,925.556004036349
43.5604,686.804574503857
43.59,703.391655450874
43.6196,712.119071644803
43.6492,537.581567440288
43.6788,417.496298788689
43.7085,370.525058863098
43.7381,410.232425159778
43.7677,434.78263795424
43.7973,439.531786074672
43.8269,436.95391860074
43.8565,421.60935397039
43.8861,400.431550622267
43.9157,385.266397578204
43.9453,358.924655230409
43.975,304.896366083442
44.0046,274.952909519004
44.0342,266.325260679449
44.0638,259.884253028264
44.0934,263.812310797175
44.123,222.670030272459
44.1526,221.078734858682
44.1822,212.724857046752
44.2118,221.897073662968
44.2414,212.484522207266
44.2711,228.538849646823
44.3007,251.999327278844
44.3303,248.258411843875
44.3599,237.084426505213
44.3895,249.118062563068
44.4191,267.607803565423
44.4487,249.925302826383
44.4783,230.23276152035
44.5079,216.619576185672
44.5376,235.423620457604
44.5672,227.050454086784
44.5968,220.963673057517
44.6264,231.53398384926
44.656,254.261688530106
44.6856,255.57820383451
44.7152,269.022880215344
44.7448,275.16347124117
44.7744,308.562731247897
44.8041,332.171265141319
44.8337,388.810292633709
44.8633,492.947527749745
44.8929,713.739569313599
44.9225,961.492095526406
44.9521,1056.5798856374
44.9817,890.409687184683
45.0113,753.410497981158
45.0409,785.805583585603
45.0706,778.264043054151
45.1002,624.884253028272
45.1298,466.350151362261
45.1594,367.925327951558
45.189,314.790713324364
45.2186,295.221325260679
45.2482,283.544567776657
45.2778,262.059219380886
45.3074,242.088799192734
45.3371,241.076690211908
45.3667,224.843876177659
45.3963,230.671039354186
45.4259,244.140935082409
45.4555,231.702320887991
45.4851,212.059892328398
45.5147,206.308106289943
45.5443,214.807265388497
45.5739,204.691453566621
45.6036,194.645475950219
45.6332,199.098890010091
45.6628,205.164199192463
45.6924,217.261015808949
45.722,206.058190380089
45.7516,192.569650067294
45.7812,204.049445005044
45.8108,201.016818028927
45.8404,201.888963660831
45.8701,214.482341069627
45.8997,209.143625967036
45.9293,195.68808882907
45.9589,181.298688193745
45.9885,188.739656912207
46.0181,199.383787420115
46.0477,186.84791386272
46.0773,182.856710393542
46.1069,185.919609821729
46.1366,184.246298788695
46.1662,189.185671039352
46.1958,189.992263706693
46.2254,178.107671601615
46.255,174.790110998991
46.2846,179.876892028254
46.3142,197.800807537013
46.3438,196.840901446351
46.3734,185.823410696267
46.4031,198.20726783311
46.4327,205.481331987891
46.4623,191.199461823071
46.4919,185.864783047425
46.5215,187.796096904445
46.5511,172.013118062563
46.5807,191.726538849643
46.6103,209.513795423956
46.6399,194.10158089472
46.6696,183.334006054489
46.6992,174.077052489906
46.7288,177.467204843593
46.7584,190.632357887655
46.788,200.948855989232
46.8176,199.970736629668
46.8472,191.898082744702
46.8768,198.7934051144
46.9064,183.74234779684
46.9361,194.230743356879
46.9657,189.25201884253
46.9953,193.599730911534
47.0249,211.069626639757
47.0545,208.245879582915
47.0841,199.975773889633
47.1137,224.565758493104
47.1433,230.87386478305
47.1729,218.237550471063
47.2025,237.513286242858
47.2322,262.395560040364
47.2618,262.890982503365
47.2914,290.18432559704
47.321,259.802219979814
47.3506,222.974427994617
47.3802,224.427177934747
47.4098,211.288933736966
47.4394,209.722745625842
47.469,208.768920282544
47.4987,222.397578203835
47.5283,219.396569122098
47.5579,213.376177658147
47.5875,242.933064244871
47.6171,237.114026236124
47.6467,225.128869448184
47.6763,213.238143289607
47.7059,209.252943155061
47.7355,200.565948855988
47.7652,191.95627312479
47.7948,199.921291624622
47.8244,211.424966352624
47.854,222.279179280191
47.8836,197.27144298688
47.9132,195.807873485868
47.9428,223
47.9724,222.570803901783
48.002,217.214670255721
48.0317,204.676421123445
48.0613,211.820719811638
48.0909,212.791120080726
48.1205,211.467025572005
48.1501,235.650857719479
48.1797,213.8886646485
48.2093,229.488559892329
48.2389,215.05852674066
48.2685,254.16548940464
48.2982,224.4401076716
48.3278,233.787420114364
48.3574,226.979818365287
48.387,247.161507402423
48.4166,249.416750756811
48.4462,263.733938782379
48.4758,304.420592193807
48.5054,323.132189707367
48.535,312.950554994954
48.5647,279.354187689204
48.5943,263.809555854643
48.6239,270.308442650521
48.6535,274.82643794147
48.6831,247.954239569314
48.7127,261.409687184662
48.7423,260.865455768582
48.7719,293.296433378195
48.8015,308.841574167511
48.8312,285.023881601078
48.8608,306.503028263791
48.8904,269.738647830471
48.92,307.653212243525
48.9496,334.522880215342
48.9792,341.661621257988
49.0088,362.046417759839
49.0384,386.81796769852
49.068,401.35856037672
49.0977,463.50386814665
49.1273,527.700302724522
49.1569,587.965006729469
49.1865,704.363269424824
49.2161,854.375042045064
49.2457,1049.40242261104
49.2753,1193.5724857047
49.3049,1573.63067608479
49.3345,2043.22745625842
49.3642,3215.30070635685
49.3938,5918.53514968127
49.4234,11295.0524899059
49.453,16628.4789774641
49.4826,12925.9122098883
49.5122,7865.70255720057
49.5418,6855.7648839558
49.5714,8754.4039690548
49.601,8390.99999999997
49.6307,4900.52573158462
49.6603,2718.05316285322
49.6899,1641.13387151033
49.7195,1164.52304069958
49.7491,903.61877523554
49.7787,698.550958627677
49.8083,579.135553313159
49.8379,512.020861372815
49.8675,470.434241506898
49.8972,400.555331315167
49.9268,400.879878869448
49.9564,375.19878910192
49.986,368.29263370333
50.0156,358.528263795423
50.0452,396.655566767572
50.0748,350.200807265395
50.1044,352.606325706594
50.134,395.781701984527
50.1636,377.70972082072
50.1933,383.397241843256
50.2229,403.332436069984
50.2525,391.256306760848
50.2821,386.35250588631
50.3117,464.979138627199
50.3413,461.254961318533
50.3709,481.578203834514
50.4005,512.640646029611
50.4301,594.380087453743
50.4598,752.575512949864
50.4894,927.75100942129
50.519,1115.44029599729
50.5486,1299.34813319878
50.5782,1301.05248990578
50.6078,1138.19912546249
50.6374,1068.20215270771
50.667,1032.62865792129
50.6966,974.093876177663
50.7263,875.257315842592
50.7559,713.745038681467
50.7855,647.380888290711
50.8151,588.643457786741
50.8447,532.09788092835
50.8743,531.334454912517
50.9039,553.728220652537
50.9335,577.794147325935
50.9631,713.305518169566
50.9928,819.872519340744
51.0224,971.530776992949
51.052,1199.13088829071
51.0816,1399.12344433232
51.1112,1395.06962663976
51.1408,1232.49562584116
51.1704,1112.99697275479
51.2,1075.41473259334
51.2296,1018.37806929028
51.2593,909.841184387609
51.2889,792.698284561062
51.3185,710.353178607465
51.3481,581.30686406461
51.3777,483.523713420792
51.4073,475.448032290617
51.4369,403.85060565276
51.4665,362.639757820384
51.4961,396.772283888325
51.5258,377.764468371467
51.5554,375.199125462497
51.585,378.741002354524
51.6146,377.526244952894
51.6442,364.54591321897
51.6738,357.087117389842
51.7034,320.519515477796
51.733,290.444332324254
51.7626,284
51.7923,261.138244197776
51.8219,276.860363391652
51.8515,250.992936427845
51.8811,231.79011099899
51.9107,241.857671601616
51.9403,238.681130171545
51.9699,226.044735956947
51.9995,237.748654104979
52.0291,252.485031954254
52.0588,247.846619576186
52.0884,227.792732166894
52.118,226.039354187689
52.1476,222.333333333332
52.1772,219.662516823688
52.2068,220
52.2364,240.270433905147
52.266,251.649512277161
52.2956,222.313593539704
52.3253,247.890346451397
52.3549,239.635385132862
52.3845,245.529609690444
52.4141,238.786074672048
52.4437,231.391187352842
52.4733,230.884253028264
52.5029,242.615876219309
52.5325,255.916246215944
52.5621,244.351278600266
52.5918,223.419778002019
52.6214,218.420450723175
52.651,199.567967698519
52.6806,228.365960309446
52.7102,219.090817356202
52.7398,213.585464333782
52.7694,246.685502859068
52.799,245.511268079383
52.8286,246.503531786073
52.8583,246.384589502019
52.8879,234.298688193744
52.9175,234.526067944838
52.9471,244.177321668909
52.9767,235.623612512613
53.0063,233.84762865792
53.0359,237.158479138628
53.0655,245.43592330979
53.0951,237.17356205853
53.1247,245.048115746974
53.1544,263.394550958628
53.184,252.976791120079
53.2136,253.42530282638
53.2432,253.164480322906
53.2728,265.165825765221
53.3024,270.673057517659
53.332,260.018842530282
53.3616,259.484359233098
53.3912,264.010090817357
53.4209,262.000000000002
53.4505,285.235116044394
53.4801,323.388496468213
53.5097,320.742934051143
53.5393,322.592330978809
53.5689,332.606794483686
53.5985,357.991251682375
53.6281,392.291624621595
53.6577,403.919609821728
53.6874,463.220726783309
53.717,523.304069963
53.7466,579.860073999326
53.7762,684.247644683722
53.8058,797.516649848641
53.8354,893.415405314493
53.865,1019.8681466532
53.8946,1343.81628532974
53.9242,1864.33097880931
53.9539,2851.30978809301
53.9835,5052.38930013432
54.0131,9595.07063572114
54.0427,15995.6491759162
54.0723,18135.0639300132
54.1019,13113.5671039358
54.1315,8389.12848974099
54.1611,7928.93371467019
54.1907,9736.22300706357
54.2204,9632.49747729566
54.25,6548.59185733549
54.2796,3568.34914228071
54.3092,2136.65859401277
54.3388,1382.12748065924
54.3684,1050.79744279945
54.398,816.908173562086
54.4276,678.410023545249
54.4572,596.768506056525
54.4869,551.084426505214
54.5165,495.401614530772
54.5461,426.518169582778
54.5757,382.223007063572
54.6053,359.86242852337
54.6349,317.522207267835
54.6645,312.039354187692
54.6941,324.471241170529
54.7237,296.674293405114
54.7534,304.772956609487
54.783,319.153380423815
54.8126,311.316285329744
54.8422,322.924991590984
54.8718,325.456104944504
54.9014,278.82038345106
54.931,276.419246298786
54.9606,262.179952909519
54.9902,269.940464177597
55.0199,275.047106325705
55.0495,258.571140262361
55.0791,255.500840901445
55.1087,243.169246298789
55.1383,241.545576858392
55.1679,240.584258324923
55.1975,236.377187079408
55.2271,232.859737638743
55.2567,214.225361587622
55.2864,238.396366083446
55.316,218.992936427851
55.3456,208.276488395561
55.3752,205.176589303733
55.4048,220.076716016148
55.4344,239.230406996304
55.464,219.977800201817
55.4936,225.055181695827
55.5232,205.13151698621
55.5529,201.150016818029
55.5825,221.061911170929
55.6121,214.633703329969
55.6417,220.516649848639
55.6713,230.151413189769
55.7009,215.992263706694
55.7305,220
55.7601,222.467025572006
55.7897,236.527749747729
55.8194,249.968718466194
55.849,246.951547779277
55.8786,268.007399932726
55.9082,239.140598721829
55.9378,232.487386478305
55.9674,217.225773889635
55.997,206.181971072992
56.0266,222.071644803229
56.0562,228.129878869452
56.0858,295.682139253281
56.1155,340.436932391516
56.1451,433.554172274564
56.1747,368.059872182983
56.2043,313.494113689875
56.2339,281.692462987885
56.2635,270.59233097881
56.2931,303.598721829802
56.3227,304.999327052493
56.3523,277.323915237135
56.382,238.0141271443
56.4116,219.245206861755
56.4412,195.796769851952
56.4708,196.926337033302
56.5004,219.248234106968
56.53,176.908479138623
56.5596,217.169525731584
56.5892,218.437268752103
56.6188,212.608344549125
56.6485,218.493104608142
56.6781,200.851664984864
56.7077,212.199865410498
56.7373,213.748738647833
56.7669,194.709048099563
56.7965,190.484522207268
56.8261,199.846283215607
56.8557,214.819374369325
56.8853,189.302153432031
56.915,174.775983854689
56.9446,215.920282542888
56.9742,188.517658930374
57.0038,234.890982503365
57.0334,230.419778002018
57.063,207.017154389512
57.0926,259.725100942129
57.1222,241.281533804239
57.1518,268.066599394551
57.1815,279.222072678331
57.2111,323.020181634714
57.2407,342.932727884294
57.2703,319.185671039355
57.2999,388.175639300128
57.3295,457.869828456095
57.3591,545.194416414402
57.3887,796.71197846566
57.4183,1153.55734947865
57.448,1411.36629667003
57.4776,1328.22502522705
57.5072,1307.69044414535
57.5368,2001.02959973081
57.5664,3326.05112680775
57.596,4117.77254374159
57.6256,3044.37840565071
57.6552,1863.06828119724
57.6848,1503.69044414541
57.7145,1799.12277161121
57.7441,1973.63639421457
57.7737,1657.89300134586
57.8033,1098.91019172563
57.8329,660.208879919264
57.8625,482.437415881551
57.8921,392.600403632686
57.9217,349.699293642786
57.9513,293.737550471059
57.981,271.798183652874
58.0106,261.042717793476
58.0402,250.195089135553
58.0698,233.916218034993
58.0994,226.702320887992
58.129,226
58.1586,210.259084791388
58.1882,208
58.2178,219.255297679111
58.2475,217.539703903096
58.2771,217
58.3067,185.31416078035
58.3363,208.977792732167
58.3659,172.449714093513
58.3955,197.056508577199
58.4251,216.43203230148
58.4547,200.625967036666
58.4843,195.338378742012
58.514,186.701984527412
58.5436,181.697173620457
58.5732,193.320887991927
58.6028,205.804238143291
58.6324,203.935397039031
58.662,208.660275815674
58.6916,240.561049445002
58.7212,223.195827725441
58.7508,215.408341742348
58.7805,230.101580894716
58.8101,252.97711978466
58.8397,294.961318533466
58.8693,322.204843592332
58.8989,355.783310901755
58.9285,360.131853346788
58.9581,347.461150353177
58.9877,294.265814266481
59.0173,288.891019172554
59.0469,291.243525058863
59.0766,306.109317188024
59.1062,253.897711978472
59.1358,233.505886310124
59.1654,227.058526740667
59.195,230.169919246299
59.2246,220.985872855701
59.2542,231.598049108643
59.2838,223.210296096905
59.3134,214.392532795157
59.3431,213.720484359233
59.3727,228.327052489905
59.4023,206.94113689875
59.4319,203.784729229733
59.4615,228.106998654104
59.4911,253.083753784057
59.5207,266.949209552642
59.5503,287.954254961317
59.5799,280.899057873486
59.6096,289.766565758495
59.6392,271.117053481331
59.6688,299.619111709294
59.6984,332.45442314161
59.728,333.653212243527
59.7576,362.881561238224
59.7872,416.616548940465
59.8168,487.134207870851
59.8464,506.183041722747
59.8761,502.650521358897
59.9057,458.415741675085
59.9353,432.07402422611
59.9649,434.826437941473
59.9945,424.966027581565
60.0241,378.360026917899
60.0537,349.375378405649
60.0833,324.90010090818
60.1129,287.967709384459
60.1426,255.768506056526
60.1722,241.944164143963
60.2018,246.674739320551
60.2314,242.563257065949
60.261,225.032290615541
60.2906,214.623948873192
60.3202,234.234185733508
60.3498,212.692566431219
60.3794,208.50554994954
60.4091,224
60.4387,217.085771947526
60.4683,203.422805247227
60.4979,197.567631224764
60.5275,212.648503195427
60.5571,212.260343087791
60.5867,204.663975782038
60.6163,206
60.6459,224.026236125129
60.6756,220.46182307433
60.7052,194.179004037686
60.7348,203.252270433906
60.7644,220.597376387488
60.794,201.925975773886
60.8236,188.716448032292
60.8532,203.393541876895
60.8828,212.484522207268
60.9124,196.661957618568
60.9421,186.082071981164
60.9717,222.387617765801
61.0013,261.025899764549
61.0309,261.035317860746
61.0605,248.08075370121
61.0901,233.685839219647
61.1197,225.484695593677
61.1493,222.637739656912
61.1789,210.906123822343
61.2086,222.436932391517
61.2382,234.169189371006
61.2678,210.332772543743
61.2974,199.774974772957
61.327,213.078708375379
61.3566,208.659488559893
61.3862,207.438277833845
61.4158,235.344096871845
61.4454,234.059892328395
61.4751,239.410359905815
61.5047,255.948536831484
61.5343,261.065612382232
61.5639,264.87722838883
61.5935,258.654557685841
61.6231,267.512613521695
61.6527,248.615074024228
61.6823,223.155398587286
61.7119,246.209552640432
61.7416,262.138627187079
61.7712,261.816010763539
61.8008,278.741675075681
61.8304,301.162180349931
61.86,306.026236125122
61.8896,289.756811301715
61.9192,308.488559892325
61.9488,323.249243188699
61.9784,347.970400269093
62.008,395.667563930012
62.0377,425.421459804914
62.0673,466
62.0969,474.576043068639
62.1265,522.845610494451
62.1561,616.136562394888
62.1857,693.843928691558
62.2153,754.275572005385
62.2449,890.285570131171
62.2745,1138.51564076693
62.3042,1595.27220726794
62.3338,2589.86141944181
62.3634,4494.06659939454
62.393,7966.69751009507
62.4226,11241.965691221
62.4522,10294.4110326271
62.4818,6597.62954239592
62.5114,4375.69626639751
62.541,4219.90615539864
62.5707,5287.65309555877
62.6003,6243.90110998994
62.6299,5156.82139253279
62.6595,3108.0110998992
62.6891,1811.43203230153
62.7187,1251.11402623607
62.7483,895.067272115688
62.7779,696.55787348587
62.8075,597.849983181976
62.8372,526.14127144299
62.8668,475.795423956936
62.8964,448.215943491424
62.926,420.39085099225
62.9556,373.897711978467
62.9852,376.899428187019
63.0148,345.178607467206
63.0444,335.307537012113
63.074,322.344769593009
63.1037,296.156407669017
63.1333,330.114401076716
63.1629,329.607467204845
63.1925,339
63.2221,339.625630676085
63.2517,348.127187079408
63.2813,368.997981836528
63.3109,366.20080726539
63.3405,410.892328398384
63.3702,447.819374369322
63.3998,492.180625630676
63.4294,544.82267833109
63.459,558.441305079043
63.4886,546.859737638751
63.5182,561.706931359355
63.5478,524.63336696939
63.5774,548.627312478974
63.607,579.721063257066
63.6367,600.212916246221
63.6663,651.010090817356
63.6959,602.643457786745
63.7255,658.270524899069
63.7551,739.719475277494
63.7847,827.415741675075
63.8143,884.691117092872
63.8439,1235.57954927689
63.8735,1829.41237806926
63.9032,2758.39905787341
63.9328,4873.25529767886
63.9624,8508.25327951611
63.992,11534.1144010765
64.0216,9474.87083753813
64.0512,5457.46081399272
64.0808,3876.13122476447
64.1104,4007.44298688188
64.14,5139.70030272435
64.1697,6274.37415881575
64.1993,5045.45677766558
64.2289,2992.56542213245
64.2585,1817.91624621597
64.2881,1244.02523553164
64.3177,905.500168180268
64.3473,729.198789101926
64.3769,588.834791386269
64.4065,551.176589303737
64.4362,536
64.4658,533.049798115739
64.4954,473.765893037332
64.525,513.020517995289
64.5546,486.900740242267
64.5842,453.185671039341
64.6138,392.651530440634
64.6434,378.281628532973
64.673,344.131853346788
64.7027,351.829801547258
64.7323,340.844601412713
64.7619,326.952893674294
64.7915,319.95156407669
64.8211,302.030272452069
64.8507,281.12714429869
64.8803,274.070659488559
64.9099,275.971072990245
64.9395,264.226034308779
64.9691,249.343203230147
64.9988,304.638748738646
65.0284,271.988900100908
65.058,271
65.0876,258.47662293979
65.1172,282.933064244873
65.1468,345.114401076708
65.1764,327.087790111
65.206,378.986209216277
65.2356,342.430686406458
65.2653,311.765893037331
65.2949,310.936764211234
65.3245,300.743693239152
65.3541,299.071668909825
65.3837,279.596367305752
65.4133,255.929364278503
65.4429,272.310901749667
65.4725,260.331987891017
65.5021,220.006390850999
65.5318,228.685733512788
65.5614,225.491086444669
65.591,208.846619576187
65.6206,225.760094212649
65.6502,201.329969727546
65.6798,213.92330978809
65.7094,244.177658142661
65.739,214.703666330308
65.7686,186.46014127144
65.7983,219.575176589304
65.8279,215.465679676986
65.8575,224.349142280525
65.8871,244.019172552977
65.9167,241.876177658142
65.9463,233.353178607468
65.9759,255.667675748405
66.0055,325.612382234177
66.0351,318.752102253618
66.0648,325.866128489742
66.0944,315.523553162851
66.124,294.796165489405
66.1536,287.707702657248
66.1832,284.543068640646
66.2128,284
66.2424,284.810292633703
66.272,277.744279946165
66.3016,234.302051799531
66.3313,223.199125462496
66.3609,236.540531449711
66.3905,218.605316285332
66.4201,200.390514631686
66.4497,184.460477632022
66.4793,191.914535666219
66.5089,198.876555667675
66.5385,190.74873864783
66.5681,186.466352624495
66.5978,188.297679112008
66.6274,181.384796501851
66.657,180.514804845222
66.6866,201.334006054493
66.7162,187.784056508574
66.7458,178.021534320322
66.7754,202.911537167844
66.805,191.393205516317
66.8346,186.9263370333
66.8643,178.499327052492
66.8939,202.608476286576
66.9235,192.779347460475
66.9531,182.845895020189
66.9827,186.282542885973
67.0123,195.803229061554
67.0419,203.936742934051
67.0715,197.588294651867
67.1011,217.684493777323
67.1308,219.65006729475
67.1604,209.775983854691
67.19,207
67.2196,226.80820995962
67.2492,250.933064244874
67.2788,253.953582240162
67.3084,267.415881561235
67.338,314.959636730576
67.3676,392.561049444998
67.3973,447.763874873858
67.4269,468.221063257067
67.4565,410.692902791804
67.4861,366.339051463165
67.5157,340.689771197851
67.5453,322.966363942147
67.5749,350.752438614194
67.6045,341.871803499331
67.6341,300.934409687186
67.6638,269.733602421797
67.6934,259.378532974428
67.723,258.382778338379
67.7526,248.194416414393
67.7822,227.391655450873
67.8118,221.022199798183
67.8414,233.201143625965
67.871,210.215270770263
67.9006,193.549125168237
67.9302,191.301715438952
67.9599,193.27648839556
67.9895,196.417900403768
68.0191,196.577867473932
68.0487,175.207198116385
68.0783,166.401076716016
68.1079,190.647830474262
68.1375,203.878573831147
68.1671,189.086810228805
68.1967,174.686175580223
68.2264,181.923309788095
68.256,180.699192462987
68.2856,174.628657921292
68.3152,179.769593003699
68.3448,176.053835800807
68.3744,183.252606794481
68.404,198.680121089809
68.4336,198.350487722838
68.4632,193.965679676986
68.4929,178.543222334342
68.5225,179.84628321561
68.5521,185.368438761776
68.5817,179.517658930374
68.6113,181.500840901446
68.6409,167.141318977123
68.6705,162.815001681803
68.7001,179.809283551966
68.7297,172.534993270528
68.7594,157.481331987891
68.789,161.815674402962
68.8186,167.890982503366
68.8482,182.650857719476
68.8778,186.323915237133
68.9074,167.562731247899
68.937,160.911170928668
68.9666,163.805583585603
68.9962,175.387487386476
69.0259,172.276581426653
69.0555,164.607467204847
69.0851,188.940127817023
69.1147,206.467025572006
69.1443,201.557685839222
69.1739,176.255297679106
69.2035,170.776581426648
69.2331,193.662630339725
69.2627,203
69.2924,189.842530282639
69.322,183.616885301043
69.3516,220.118062563062
69.3812,247
69.4108,240.692566431213
69.4404,267.645139589639
69.47,338.876892028252
69.4996,421.614737550451
69.5292,639.528086108366
69.5589,992.685166498484
69.5885,1243.19212651414
69.6181,1064.19340733263
69.6477,703.439959636705
69.6773,536.534320323024
69.7069,493.452741338712
69.7365,572.913891691903
69.7661,681.889973082112
69.7957,685.266397578204
69.8254,557.250252270441
69.855,422.225100942123
69.8846,316.709720820723
69.9142,265.792801883619
69.9438,238.95862764884
69.9734,207.45154777927
70.003,190.048099562734
70.0326,200.68886646485
70.0622,193.555854643335
70.0919,185.121762529431
70.1215,202.318869828456
70.1511,207.323014804844
70.1807,205.986209216277
70.2103,209.909855364954
70.2399,188.007402422612
70.2695,190.854692230073
70.2991,209.34308779011
70.3287,208.806191117095
70.3584,219.271106626303
70.388,225.334678775645
70.4176,246.561238223421
70.4472,278.43289606458
70.4768,324.872519340732
70.5064,345.005045408678
70.536,333.056527590846
70.5656,323.758829465187
70.5952,317.790447359566
70.6249,301.471736204576
70.6545,300.450723175245
70.6841,288.361923982508
70.7137,273.323014804846
70.7433,259.182643794149
70.7729,241.570803901783
70.8025,232.219044414542
70.8321,205.680457450387
70.8617,217.614530776994
70.8913,216.88963660834
70.921,185.835519677094
70.9506,178.346787756473
70.9802,185.316621803498
71.0098,185.664312142619
71.0394,165.59233097881
71.069,183.752438614195
71.0986,188.752355316285
71.1282,170.330642448706
71.1578,157.32492431887
71.1875,163.683714670251
71.2171,184.22199798184
71.2467,166.601749075005
71.2763,180.107671601614
71.3059,179.049781365623
71.3355,201.87790110999
71.3651,193.64064602961
71.3947,185.131853346788
71.4243,187.019845274132
71.454,194.759084791386
71.4836,203.060881264716
71.5132,225
71.5428,225.454759502186
71.5724,234.795760430686
71.602,278.315169862094
71.6316,250.632694248229
71.6612,289.759757738905
71.6908,354.109989909183
71.7205,371.861755802223
71.7501,445.22880215342
71.7797,508.141944164153
71.8093,625.784056508569
71.8389,985.800807536943
71.8685,1490.49445005029
71.8981,2508.91490077357
71.9277,3557.947846568
71.9573,3741.46922300716
71.987,2714.12512613501
72.0166,1822.9141991925
72.0462,1364.49882273797
72.0758,1330.04204507234
72.1054,1676.9848637739
72.135,2120.05921938086
72.1646,2211.85469223001
72.1942,1575.04776320214
72.2238,1353.31359353973
72.2535,1189.25630676084
72.2831,1106.29465186677
72.3127,890.816285329794
72.3423,643.653212243509
72.3719,490.811974436603
72.4015,448.000000000007
72.4311,502.777927321682
72.4607,543.655230407
72.4903,574.603767238483
72.52,478.318977119788
72.5496,376.818365287597
72.5792,295.79818365289
72.6088,248.248906828123
72.6384,236.336810228801
72.668,208.014463504883
72.6976,207
72.7272,210.826379542396
72.7568,217.665657584932
72.7865,241.780692902794
72.8161,224.056527590851
72.8457,237.142280524721
72.8753,222.046417759836
72.9049,234.081426648718
72.9345,230.349815001682
72.9641,238.330978809283
72.9937,246.372812920591
73.0233,206.640766902112
73.053,210.329969727547
73.0826,209.175639300135
73.1122,201.737302388159
73.1418,238.945509586271
73.1714,201.641775983858
73.201,197
73.2306,169.38883282879
73.2602,194.361923982506
73.2898,168.886271870793
73.3195,183.506559031279
73.3491,169.339051463168
73.3787,177.473755047106
73.4083,172.920618903466
73.4379,166.815338042382
73.4675,165.1399730821
73.4971,190.671039354186
73.5267,176.270770265724
73.5563,177.236204576042
73.586,160.228052472252
73.6156,168.786747393208
73.6452,155.08678102926
73.6748,163.668236877525
73.7044,153.563067608478
73.734,165.02085435587
73.7636,169.64131897712
73.7932,169.183652875883
73.8228,161.692230070634
73.8524,165.655114401077
73.8821,170.227716111671
73.9117,163.776992936427
73.9413,174.775235531626
73.9709,174.823410696266
74.0005,162.153380423814
74.0301,141.715343203227
74.0597,162.785065590306
74.0893,171.553985872855
74.1189,167.36271870794
74.1486,152.104944500501
74.1782,171.027245206862
74.2078,159.683148335015
74.2374,138.818304172273
74.267,156.643794147332
74.2966,187.263033972412
74.3262,177.088829071335
74.3558,179.162125798857
74.3854,154.707366296669
74.4151,152.368775235533
74.4447,177.710393541871
74.4743,179.446014127143
74.5039,164.69044414536
74.5335,167.198116380761
74.5631,179.300706357213
74.5927,199.360026917904
74.6223,206.707029936091
74.6519,233.700975445672
74.6816,232.370332996972
74.7112,228.395020188425
74.7408,249.10393541877
74.7704,212.534813319889
74.8,229.659825033635
74.8296,249.721829801547
74.8592,246.26740665994
74.8888,280.956594885612
74.9184,251.595021863424
74.9481,220.000000000001
74.9777,231.900403768507
75.0073,235.392196434577
75.0369,236.923309788093
75.0665,220.157806191113
75.0961,223.554994954592
75.1257,252.797510931713
75.1553,296.847240915202
75.1849,331.450050454087
75.2146,332.788092835523
75.2442,324.863437605113
75.2738,376.590847913857
75.3034,432.518331651536
75.333,576.665993945525
75.3626,892.989905787373
75.3922,1406.06693575523
75.4218,2122.19576185661
75.4514,2410.71870794077
75.4811,1929.1513622604
75.5107,1310.17255297682
75.5403,927.846567967687
75.5699,782.307433568791
75.5995,841.080053817674
75.6291,1095.50269179003
75.6587,1291.11806256306
75.6883,1193.67608476285
75.7179,871.103599058188
75.7476,579.261440107727
75.7772,432.051799529095
75.8068,338.57315842583
75.8364,271.755720053831
75.866,245.554322233433
75.8956,237.758829465187
75.9252,225.887954239566
75.9548,220.658930373361
75.9844,208.759838546923
76.0141,181.255720053834
76.0437,175.313151698623
76.0733,176.82004709048
76.1029,178.67934051144
76.1325,181.94248234107
76.1621,179.505213588967
76.1917,173.486877523553
76.2213,158.554322233433
76.2509,157.386478304741
76.2806,155.662966700305
76.3102,160.129205921931
76.3398,164.373696602761
76.3694,154.435923309788
76.399,152.679004037683
76.4286,154.17255297679
76.4582,159.068281197444
76.4878,159.846567967698
76.5174,167.946855028591
76.5471,174.087117389842
76.5767,173.904441453566
76.6063,179.480322906154
76.6359,188.549276824757
76.6655,183.771870794077
76.6951,168.953245879584
76.7247,166.29263370333
76.7543,171.412041708711
76.7839,184.445491251685
76.8135,185.547595021866
76.8432,182.678439286914
76.8728,208.495625841181
76.9024,221.182643794147
76.932,215.956945845945
76.9616,224.402422611031
76.9912,256.689202825432
77.0208,270.650857719475
77.0504,261.190780619115
77.08,246.253279515643
77.1097,240.821056172217
77.1393,238.309219380888
77.1689,224.373696602758
77.1985,224.261352169525
77.2281,220.809555854644
77.2577,228.910191725537
77.2873,238.590649175916
77.3169,217.647830474268
77.3465,216.304172274562
77.3762,212.570131180626
77.4058,215.540531449713
77.4354,224.245625841182
77.465,214.003027245207
77.4946,213.690211907166
77.5242,215.839838492599
77.5538,245.113353514962
77.5834,280.489068281198
77.613,323.047106325726
77.6427,420.913555331306
77.6723,549.790110998997
77.7019,813.999327052438
77.7315,962.764547595049
77.7611,814.123107971696
77.7907,582.954591321882
77.8203,451.524562584133
77.8499,399.693239152372
77.8795,409.834510595356
77.9092,451.307200538363
77.9388,546.187689202839
77.9684,611.436932391526
77.998,539.306191117144
78.0276,350.639421459817
78.0572,274.729566094857
78.0868,237.994616419919
78.1164,221.897073662974
78.146,190.014127144295
78.1757,205.081090174961
78.2053,178.993945509584
78.2349,192.899091826438
78.2645,188.291386271872
78.2941,191.27447023209
78.3237,175.441305079045
78.3533,174.404641775985
78.3829,162.032301480486
78.4125,150.792129162462
78.4422,153.723511604443
78.4718,168
78.5014,166.015472586612
78.531,162.657921291627
78.5606,178.394347240917
78.5902,170.241170534809
78.6198,200.187016481668
78.6494,205.096904441465
78.679,269.630676084762
78.7087,306.422468886637
78.7383,422.788694481828
78.7679,523.739656912213
78.7975,441.749075008423
78.8271,328.395560040367
78.8567,263.947173620459
78.8863,254.049445005042
78.9159,238.381096535495
78.9455,286.16520861373
78.9752,311.065253952241
79.0048,337.16885301043
79.0344,296.82065948856
79.064,272.567103935405
79.0936,203.006390850989
79.1232,182.03869448183
79.1528,185.435250588627
79.1824,151.994954591319
79.212,174.94751009421
79.2417,158.121089808275
79.2713,167.902455432223
79.3009,167.279609690445
79.3305,168.841237806932
79.3601,158.864783047429
79.3897,177.151025899766
79.4193,157.292732166892
79.4489,173.503868146653
79.4785,181.014127144296
79.5082,193.334454912524
79.5378,170.87588294652
79.5674,185.105617221659
79.597,201.92328398385
79.6266,183.099562731247
79.6562,185.635721493437
79.6858,199.944145356665
79.7154,221.186007399935
79.745,198.890682811968
79.7746,165.547779273215
79.8043,150.386141944166
79.8339,164.649848637743
79.8635,191.868146653212
79.8931,185.23149394347
79.9227,200.843592330979
79.9523,185.921291624621
79.9819,173
80.0115,173
80.0411,182.932727884291
80.0708,173.077362933064
80.1004,163.117765814265
80.13,159.064581231079
80.1596,204.056172216609
80.1892,188.417563930015
80.2188,208.392532795158
80.2484,188.699293642784
80.278,208.215679676986
80.3076,197.500504540868
80.3373,221.889337369661
80.3669,252.550134589504
80.3965,263.488731920618
80.4261,304.613521695261
80.4557,324.862428523378
80.4853,399.013458950188
80.5149,524.191725529739
80.5445,738.870837537867
80.5741,928.577388963635
80.6038,945.766902119072
80.6334,964.358560376727
80.663,1203.60430686407
80.6926,1544.33165153047
80.7222,1446.56407669021
80.7518,1174.39098250341
80.7814,937.060208543545
80.811,803.239152371324
80.8406,726.931359353984
80.8703,656.000336360572
80.8999,737.177598385461
80.9295,902.750420450721
80.9591,854.914872139985
80.9887,630.93945509589
81.0183,486.447023208867
81.0479,387.137617765803
81.0775,284.832156071304
81.1071,257.204843592329
81.1368,216.647039030949
81.1664,211.695930037
81.196,213.687184661958
81.2256,203.086473755048
81.2552,216.033299697278
81.2848,201.552976791117
81.3144,177.332099596236
81.344,171.355196770938
81.3736,174.272115708039
81.4033,202.788021534316
81.4329,192.740329633368
81.4625,180.913891691894
81.4921,174.978809283552
81.5217,172.399730820996
81.5513,157.675075681134
81.5809,154
81.6105,157.14939434724
81.6401,168.179616548937
81.6698,156.141271442988
81.6994,158.223418573352
81.729,180.887991927349
81.7586,193.923309788093
81.7882,182.22745625841
81.8178,158.217961654893
81.8474,141.40935082408
81.877,154.55181695828
81.9066,140.550285906487
81.9363,163.135216952578
81.9659,157.403632694251
81.9955,153.477119784657
82.0251,153.265724857047
82.0547,169.787756474939
82.0843,171.645356662182
82.1139,172.164480322906
82.1435,183.03969054827
82.1731,168.462314939441
82.2028,160.28792465523
82.2324,164.24621594349
82.262,172.332099596233
82.2916,174.300706357215
82.3212,174.694920955264
82.3508,179.144683714669
82.3804,186.492095526405
82.41,171.264379414728
82.4396,196.221736204567
82.4693,219.448032290616
82.4989,222.32727884292
82.5285,254.080726538853
82.5581,262.693808882909
82.5877,258.340060544904
82.6173,259.966700302724
82.6469,287.056527590855
82.6765,306.177262024892
82.7061,326.997981836523
82.7357,328.69784656797
82.7654,345.683148335016
82.795,412.469559367641
82.8246,532.718034993266
82.8542,723.11570803896
82.8838,1085.26337033295
82.9134,1502.56796769849
82.943,1765.57954927681
82.9726,1600.38782374705
83.0022,1209.43794147334
83.0319,888.086137281315
83.0615,714.177598385488
83.0911,617.726875210231
83.1207,616.210632570654
83.1503,778.788092835474
83.1799,965.347124117057
83.2095,984.566958277241
83.2391,797.910864446741
83.2687,585.226707029918
83.2984,408.258748317609
83.328,316.478304742691
83.3576,283.638748738644
83.3872,247.690107671607
83.4168,231.34813319879
83.4464,205.418768920281
83.476,208.308546433374
83.5056,196.267406659951
83.5352,168.466532122435
83.5649,177.051799529096
83.5945,174.434724091522
83.6241,171.812647157752
83.6537,171.763874873865
83.6833,167.030955585464
83.7129,164.421123444331
83.7425,160.49310460814
83.7721,158.994616419919
83.8017,159.993945509587
83.8314,168.467204843595
83.861,169.080753701213
83.8906,174.248570467541
83.9202,188.90817356206
83.9498,201.12920592194
83.9794,188.138244197792
84.009,176.21358896738
84.0386,176.5062226707
84.0682,171.5831090175
84.0979,170.662630339729
84.1275,165.453077699293
84.1571,159.028263795422
84.1867,151.189707366297
84.2163,166.546585940129
84.2459,171.145693135938
84.2755,184.873864783047
84.3051,172.158089471915
84.3347,170.704912516827
84.3644,183.594685502856
84.394,193.426505213585
84.4236,220.648721399731
84.4532,225.953582240167
84.4828,249.027917928016
84.5124,262
84.542,254.362933064241
84.5716,237.036326942484
84.6012,246.480659266748
84.6309,283.238896366083
84.6605,313.079044735954
84.6901,347.291960982175
84.7197,384.808882907123
84.7493,476.549949545904
84.7789,597.213588967392
84.8085,749.654777927311
84.8381,1046.4012781701
84.8677,1562.07063572153
84.8974,2227.03566621798
84.927,2580.05549949546
84.9566,2299.62899428177
84.9862,1607.63257065953
85.0158,1152.54053144968
85.0454,908.63673057518
85.075,811.703666330304
85.1046,847.090511440129
85.1342,1063.45812310802
85.1639,1361.90211907167
85.1935,1441.03297442799
85.2231,1212.0393541878
85.2527,864.255970400316
85.2823,638.98283983847
85.3119,466.32795156406
85.3415,341.209889001009
85.3711,309.228129205918
85.4007,282.523040699631
85.4304,262.105953582242
85.46,233.115074024226
85.4896,199.653884964682
85.5192,192.097880928355
85.5488,187.434724091522
85.5784,174.449714093514
85.608,185.055835856034
85.6376,157.257315842583
85.6672,162.301480484519
85.6968,177.737975109317
85.7265,185.256306760847
85.7561,176.666218034992
85.7857,153.407669021187
85.8153,142.940464177598
85.8449,149.693135935395
85.8745,159.732929700639
85.9041,149.776656575848
85.9337,140.037685060564
85.9633,141.770938446019
85.993,167.186680121095
86.0226,142.417227456259
86.0522,142.772956609485
86.0818,140.001345442314
86.1114,146.825428859738
86.141,141.808546433378
86.1706,142.686175580223
86.2002,155.30642448705
86.2298,168.994616419914
86.2595,128.87184661958
86.2891,156.173562058527
86.3187,155.815275908478
86.3483,151.651530440632
86.3779,160.643121426169
86.4075,163.06123822342
86.4371,159.676084762866
86.4667,171.219979818362
86.4963,185.580417227457
86.526,194.285233770603
86.5556,189.307097208208
86.5852,186.879542395697
86.6148,199.78102926337
86.6444,207.893373696604
86.674,222.535822401619
86.7036,186.512786002698
86.7332,207.01009081735
86.7628,163.150689539192
86.7925,190.615074024224
86.8221,201.306424487044
86.8517,180.679112008077
86.8813,201.204576043061
86.9109,166.634712411707
86.9405,179.023545240486
86.9701,142.254374158825
86.9997,199.595358224016
87.0293,182.263370332996
87.059,172.85464333782
87.0886,169.833501513621
87.1182,154.51395896401
87.1478,163.676421123438
87.1774,187.390646029598
87.207,143.514631685167
87.2366,153.612176252946
87.2662,166
87.2958,166.232088799193
87.3255,171.284224688863
87.3551,153.632907133247
87.3847,172.029263370333
87.4143,172.775983854693
87.4439,164
87.4735,164.098890010092
87.5031,169.794147325935
87.5327,153.301816958282
87.5623,191.877901109983
87.592,159
87.6216,159
87.6512,204.736877523541
87.6808,174.312815338037
87.7104,200.609485368315
87.74,210.811638076019
87.7696,204.160161507403
87.7992,239.991927346114
87.8288,255.525731584257
87.8585,273.418573351282
87.8881,291.340060544901
87.9177,315.974100235453
87.9473,320.819650067294
87.9769,316.247225025228
88.0065,321.677093844603
88.0361,320.115746971736
88.0657,299.368987554659
88.0953,288.665993945508
88.125,294.528936742934
88.1546,300.570131180627
88.1842,345.351160444007
88.2138,306.697948200477
88.2434,331.381897711975
88.273,312.131180625633
88.3026,335.391187352843
88.3322,352.444145356661
88.3618,412.397241843261
88.3915,462.973091153727
88.4211,643.09421265138
88.4507,875.582240161469
88.4803,1291.23646148661
88.5099,1830.70625841183
88.5395,2414.84561049446
88.5691,2290.96266397577
88.5987,1722.24966352636
88.6283,1229.86713757144
88.6579,866.904473595644
88.6876,781.949528936744
88.7172,751.233434241512
88.7468,783.534813319882
88.7764,1013.99764547593
88.806,1314.92597577391
88.8356,1389.94281870165
88.8652,1147.74974772956
88.8948,842.853297442764
88.9244,594.692230070616
88.9541,431.184998318182
88.9837,357.499327052483
89.0133,288.344096871837
89.0429,264.466195761856
89.0725,270.868102288022
89.1021,246.537840565088
89.1317,211.289606458122
89.1613,236.529609690438
89.1909,242.632694248234
89.2206,225.450050454086
89.2502,228.837201479985
89.2798,232.559219380888
89.3094,211.291288261017
89.339,222.731584258326
89.3686,238.735531628536
89.3982,217.599058190379
89.4278,204.692902791792
89.4574,209.032301480484
89.4871,206.481331987893
89.5167,181.04036326943
89.5463,185.658479138626
89.5759,184.817692566431
89.6055,182.264043054154
89.6351,195.904777927321
89.6647,169.715438950556
89.6943,160.892700975445
89.7239,162
89.7536,169.181298351834
89.7832,162.007399932731
89.8128,165.093844601413
89.8424,154.600269179007
89.872,142.6912209889
89.9016,156.718466195764
89.9312,152.920592193808
89.9608,169.334006054493
89.9904,170.794147325931
