4.0001,384.030272452069
4.0297,392.990918264379
4.0593,366.136271870794
4.0889,365.009418096199
4.1185,327.524049781365
4.1482,353.60935397039
4.1778,360.868146653212
4.2074,321.928355196771
4.237,285.008411843876
4.2666,289.810292633703
4.2962,307.352169525732
4.3258,338.708375378406
4.3554,317.065948855989
4.385,298.87790110999
4.4147,262.841910528086
4.4443,269.515477792732
4.4739,292.603430877901
4.5035,313.686175580222
4.5331,260.86406460296
4.5627,264.432223343424
4.5923,259.452068617558
4.6219,281.094212651413
4.6515,282.083753784057
4.6812,262.780020181635
4.7108,230.020188425303
4.7404,243.322906155398
4.77,219.731247897746
4.7996,235.859737638749
4.8292,221.013795423957
4.8588,235.903800874538
4.8884,244.197107299025
4.918,252.931022880215
4.9477,241.676421123444
4.9773,217.227043390514
5.0069,222.71803499327
5.0365,234.409687184662
5.0661,229.958291288261
5.0957,227.28196500673
5.1253,209.906155398587
5.1549,192.544567776657
5.1845,190
5.2142,200.143289606458
5.2438,222.181634712412
5.2734,196.711641991925
5.303,193.497477295661
5.3326,203.937436932392
5.3622,191.172552976791
5.3918,181.442799461642
5.4214,191.41473259334
5.451,213.46316851665
5.4807,196.934051144011
5.5103,195.223679784729
5.5399,192.793810965355
5.5695,195.189771197847
5.5991,199.172552976791
5.6287,198.422468886647
5.6583,183.876177658143
5.6879,180
5.7175,169.912209889001
5.7471,189.384253028264
5.7768,202.938446014127
5.8064,180.469895728221
5.836,173
5.8656,172.241924629879
5.8952,201.397578203835
5.9248,194.512949882274
5.9544,181.547106325706
5.984,173.071981163808
6.0136,184.995963673058
6.0433,194.415208613728
6.0729,185.026236125126
6.1025,165.001345442314
6.1321,182.13862718708
6.1617,179.499159098554
6.1913,174.285570131181
6.2209,185.364737550471
6.2505,199.178271106626
6.2801,188.265388496468
6.3098,182.700874831763
6.3394,178.123780692903
6.369,163.539858728557
6.3986,171.069290279179
6.4282,185.204576043068
6.4578,192.397241843256
6.4874,189.949545913219
6.517,179.277927321669
6.5466,181.666666666667
6.5763,175.680793810965
6.6059,151.816285329744
6.6355,168.289942818702
6.6651,173.512613521695
6.6947,189.110363391656
6.7243,178.088126471578
6.7539,187.123107971746
6.7835,182.465679676985
6.8131,176.158425832492
6.8428,182.41473259334
6.8724,180.615876219307
6.902,179.866419919246
6.9316,176.056844937773
6.9612,161.956609485368
6.9908,160.484185733513
7.0204,167.630676084763
7.05,185.619239825093
7.0796,190.034320323015
7.1093,165.74638412378
7.1389,168.557013118062
7.1685,186.458613728129
7.1981,186.336696939119
7.2277,172.586276488396
7.2573,189.123149394347
7.2869,175.642785065591
7.3165,174.630339724184
7.3461,191.438425302826
7.3758,185.392869155735
7.4054,178.218298015473
7.435,180.415741675076
7.4646,187.834454912517
7.4942,174.14968045745
7.5238,171.862092162798
7.5534,173.440107671601
7.583,165.469223007064
7.6126,165.526404305415
7.6423,180.71601615074
7.6719,192.435923309788
7.7015,177.558358560377
7.7311,178.845222072679
7.7607,191.491422805247
7.7903,181.924318869829
7.8199,178.5
7.8495,184.991590985537
7.8791,189.931382441978
7.9088,192.528758829465
7.9384,181.762113055182
7.968,182.12209889001
7.9976,190.611839892365
8.0272,186.579744279946
8.0568,188.284561049445
8.0864,192.929700639085
8.116,191.236204576043
8.1456,196.215943491423
8.1753,188.69357551295
8.2049,181.085127860027
8.2345,192.976791120081
8.2641,191.98385469223
8.2937,203.137954239569
8.3233,209.263033972419
8.3529,211.298688193744
8.3825,203.379542395692
8.4121,196.379414732593
8.4418,202.32963336697
8.4714,201.482341069626
8.501,205.820995962315
8.5306,204.12209889001
8.5602,226.983518331652
8.5898,214.42261103634
8.6194,208.29263370333
8.649,215.923309788093
8.6786,218.815612382234
8.7082,237.910528086108
8.7379,237.18903464514
8.7675,227.985195154778
8.7971,231.944500504541
8.8267,248.841574167508
8.8563,253.092193808883
8.8859,253.20047090481
8.9155,243.244870501177
8.9451,225.030272452069
8.9747,241.405450874833
9.0044,282.616548940464
9.034,261.97477295661
9.0636,261.349932705249
9.0932,268.666666666667
9.1228,266.157416750757
9.1524,243.623485868102
9.182,255.01379078372
9.2116,274.84561049445
9.2412,267.275908479139
9.2709,244.778338378742
9.3005,261.693239152371
9.3301,261
9.3597,263.386814665321
9.3893,267.530104271779
9.4189,267.766150740242
9.4485,284.139253279516
9.4781,300.594012781702
9.5077,298.384123780693
9.5374,311.656796769851
9.567,325.857046754121
9.5966,299.476286579213
9.6262,305.053162853297
9.6558,305.395896400942
9.6854,333.671375714766
9.715,319.99865410498
9.7446,321.924318869828
9.7742,332.646821392533
9.8039,320.686406460296
9.8335,323.632021527077
9.8631,321.113353514968
9.8927,338
9.9223,334.415741675076
9.9519,329.687521022535
9.9815,354.201479986545
10.0111,344.421938088829
10.0407,349.309788092836
10.0704,363.029263370333
10.1,370.224764468372
10.1296,380.828119744366
10.1592,363.891019172554
10.1888,335.851615074025
10.2184,366.170534813321
10.248,384.312478977463
10.2776,367.575370121131
10.3072,388.484359233098
10.3369,383.095190043727
10.3665,372.164535666218
10.3961,383.775983854692
10.4257,370.378742011437
10.4553,406.696500672947
10.4849,365.939455095863
10.5145,396.17961654894
10.5441,408.718129835183
10.5737,405.633916554509
10.6034,404.338042381433
10.633,441.925327951565
10.6626,384.798115746972
10.6922,402.030272452069
10.7218,387.050117726202
10.7514,384.004037685061
10.781,415.551631348806
10.8106,418.834510595358
10.8402,406.154777927322
10.8699,383.119071644803
10.8995,405.282206525396
10.9291,434.340511440108
10.9587,415.88496468214
10.9883,396.680121089809
11.0179,426.396905482677
11.0475,429.199192462988
11.0771,406.077362933064
11.1067,393.667003027245
11.1364,391.296433378196
11.166,423.56912209889
11.1956,417.171543895056
11.2252,419.683041722746
11.2548,414.731584258325
11.2844,427.401614530776
11.314,395.60262449529
11.3436,457.028254288597
11.3732,430.873528422469
11.4029,427.367429340512
11.4325,439.372014799865
11.4621,452.200807265388
11.4917,417.053499327052
11.5213,419.489741002355
11.5509,383.32963336697
11.5805,417.873864783048
11.6101,393.007402422611
11.6397,403.962987886945
11.6693,398.046417759838
11.699,402.95627312479
11.7286,415.833781965007
11.7582,452.365287588294
11.7878,447.12916246216
11.8174,390.483176312249
11.847,417.131853346787
11.8766,357.1614530777
11.9062,390.580753701211
11.9358,435.077699293642
11.9655,427.437268752102
11.9951,422.238896366083
12.0247,409.677766565758
12.0543,375.977800201817
12.0839,400.295324587959
12.1135,387.974091520861
12.1431,421.436259670367
12.1727,411.957618567104
12.2023,384.254037685061
12.232,427.143289606459
12.2616,397.07399932728
12.2912,416.82133243607
12.3208,412.640430541541
12.3504,399.342078708376
12.38,404.300471063257
12.4096,405.895728220653
12.4392,387.281533804238
12.4688,378.789030955586
12.4985,372.682139253279
12.5281,386.99293642785
12.5577,367.93135935397
12.5873,346.655903128153
12.6169,388.32694248234
12.6465,391.540867810293
12.6761,384.114401076716
12.7057,396.701984527413
12.7353,387.071981163808
12.765,368.825706594886
12.7946,363.459132189707
12.8242,386.59233097881
12.8538,393.515477792732
12.8834,375.648166834846
12.913,387.766229397915
12.9426,395.954239569313
12.9722,410.142280524722
13.0018,413.817019845274
13.0315,383.79744279946
13.0611,388.367642112344
13.0907,391
13.1203,375.738647830474
13.1499,375.995625841184
13.1795,381.768920282543
13.2091,383
13.2387,368.059555854644
13.2683,356.961654894046
13.298,355.78102926337
13.3276,395.622812920593
13.3572,369.141607803564
13.3868,383.352169525731
13.4164,368.840174966353
13.446,356.681130171544
13.4756,364.821056172217
13.5052,355.227119784657
13.5348,377.89404641776
13.5645,384.015808947192
13.5941,360.000336473755
13.6237,378.554994954591
13.6533,361.602421796166
13.6829,362.933400605449
13.7125,367
13.7421,392.216952573159
13.7717,400.567776656576
13.8013,370.096904441454
13.831,372.932391523714
13.8606,345.785401950892
13.8902,334.810228802154
13.9198,326.224016145308
13.9494,332.408678102926
13.979,341.828398384926
14.0086,343.314497140935
14.0382,357.984863773966
14.0678,356.199192462988
14.0975,345.915237134208
14.1271,340.313151698621
14.1567,362.364737550472
14.1863,368.69357551295
14.2159,350.844601412714
14.2455,360.01849983182
14.2751,350.138290713324
14.3047,344.52304069963
14.3343,356.626639757821
14.364,340.847577388963
14.3936,351.285570131182
14.4232,356.411705348133
14.4528,367.076716016151
14.4824,360.401278170199
14.512,354.717457114026
14.5416,344.691790040378
14.5712,322.33198789102
14.6008,322.708711738984
14.6304,306.702893674292
14.6601,335.325933400606
14.6897,359.818365287588
14.7193,325.570803901783
14.7489,322.842530282639
14.7785,337.753784056509
14.8081,333.197780020181
14.8377,318.055181695827
14.8673,324.867137571477
14.8969,329.190716448032
14.9266,354.597577388963
14.9562,344.256306760847
14.9858,336.97275479314
15.0154,337.046433378197
15.045,318.954254961318
15.0746,328.176252943156
15.1042,325.391655450875
15.1338,316.220988900101
15.1634,318.467541204171
15.1931,321.189771197847
15.2227,335.603094517323
15.2523,342.86175580222
15.2819,342.593340060545
15.3115,327.508075370122
15.3411,330.900100908172
15.3707,343.929364278506
15.4003,321.444481830419
15.4299,318.929364278507
15.4596,322.077699293643
15.4892,312.969044414536
15.5188,302.310460813992
15.5484,311.249579549277
15.578,328.766823687752
15.6076,301.087790110999
15.6372,291.185334678775
15.6668,304.599932705249
15.6964,305.312478977464
15.7261,317.229734275144
15.7557,312.458123107973
15.7853,294.452893674293
15.8149,313.396905482677
15.8445,329.779347460477
15.8741,307.476446837148
15.9037,309.052472250251
15.9333,313.422468886646
15.9629,295.255720053836
15.9926,309
16.0222,299.713084426506
16.0518,309.984522207269
16.0814,321.727547931383
16.111,291.362596703666
16.1406,295.481830417228
16.1702,305
16.1998,307.379414732593
16.2294,316.884925975774
16.2591,320.127144298687
16.2887,300.934073326605
16.3183,282.320551631349
16.3479,289.734522207269
16.3775,304.507568113017
16.4071,302.919946182308
16.4367,315.194481830417
16.4663,338.88731920619
16.4959,387.216952573158
16.5256,389.976783310904
16.5552,328.052472250255
16.5848,290.608139926
16.6144,304.374158815612
16.644,311.072653884964
16.6736,314.979818365288
16.7032,307.330753701211
16.7328,303.427514295325
16.7624,297.222334342415
16.7921,307.212243525059
16.8217,316.21870794078
16.8513,316.620585267406
16.8809,305.766229397914
16.9105,299.349932705249
16.9401,310.802219979815
16.9697,352.860746720485
16.9993,336.589502018843
17.0289,316.403969054826
17.0586,303.282542885974
17.0882,300.409825033647
17.1178,306.222670702993
17.1474,308.445005045409
17.177,303.576043068641
17.2066,313.879582912883
17.2362,319.209216279852
17.2658,348.179676985196
17.2954,335.711402623613
17.3251,334.558022199799
17.3547,368.506222670703
17.3843,361.905450874832
17.4139,361.024217961658
17.4435,405.722502522704
17.4731,418.210969044415
17.5027,501.868146653211
17.5323,504.515304406324
17.5619,436.489232839837
17.5915,413.212916246216
17.6212,412.940464177598
17.6508,415.643337819649
17.6804,434.691557349479
17.71,410.597376387487
17.7396,409.688088829072
17.7692,394.664984863774
17.7988,399.248906828118
17.8284,444
17.858,443.64468371467
17.8877,441.646148671376
17.9173,444.83148335015
17.9469,471.364737550471
17.9765,484.224688866464
18.0061,479.059872182977
18.0357,563.570659488558
18.0653,628.416750756811
18.0949,692.19542549613
18.1245,885.341857335142
18.1542,1409.82778338382
18.1838,2567.66868483009
18.2134,5363.68775235532
18.243,12590.6841574165
18.2726,29246.9468550283
18.3022,36599.4427994608
18.3318,22593.1022536155
18.3614,10461.1594349147
18.391,3172.36024217973
18.4207,1571.98889636609
18.4503,1104.60948536831
18.4799,883.10662630339
18.5095,720.489905787347
18.5391,643.060544904137
18.5687,587.959300369999
18.5983,532.86473755047
18.6279,518.151362260344
18.6575,493.96569122099
18.6872,467.928331090175
18.7168,467.270433905146
18.7464,467.205852674063
18.776,410.528936742934
18.8056,403
18.8352,401.637739656911
18.8648,376.09216279852
18.8944,378.041722745626
18.924,378.472586612849
18.9537,365.109989909183
18.9833,366.998654104978
19.0129,337
19.0425,337.525395223679
19.0721,358.746298788695
19.1017,345.969054826774
19.1313,343.822401614531
19.1609,328.215343203231
19.1905,359.913891691893
19.2202,328.035317860747
19.2498,348.943491422805
19.2794,339.06729475101
19.309,324.166498486377
19.3386,316.123780692902
19.3682,322.863391655451
19.3978,322.023881601076
19.4274,343.378405650857
19.457,296.598721829802
19.4867,301.766823687752
19.5163,308.736293306425
19.5459,288.882946518668
19.5755,289.907806191117
19.6051,299.49545913219
19.6347,294.328960645812
19.6643,297.764468371467
19.6939,293.316178943828
19.7235,288.338042381433
19.7532,276.819650067295
19.7828,264.871846619577
19.8124,268.614867137572
19.842,287.378196500672
19.8716,303.633030608813
19.9012,284.975782038345
19.9308,266.695257315842
19.9604,299.266487213998
19.99,258.129498822735
20.0197,271.824419778001
20.0493,308.800807537012
20.0789,286.360242179616
20.1085,316.577531113354
20.1381,393.122476446834
20.1677,449.386141944166
20.1973,600.559031281537
20.2269,911.496635262439
20.2565,1589.02253615875
20.2862,2149.13656239491
20.3158,1791.7604306864
20.3454,1325.90918264379
20.375,792.097880928337
20.4046,564.582099596233
20.4342,524.556340396905
20.4638,626.482004709044
20.4934,760.081735620583
20.523,977.436406460282
20.5526,884.661957618574
20.5823,797.633366969394
20.6119,520.796433378202
20.6415,418.062563067608
20.6711,352.159434914228
20.7007,300.351278600268
20.7303,290.199125462496
20.7599,285.220988900101
20.7895,272.906460296097
20.8191,291.278506559033
20.8488,301.722502522704
20.8784,296.736204576043
20.908,284.098553649512
20.9376,253.125126135216
20.9672,246.539858728557
20.9968,255.42395693136
21.0264,266.376723847965
21.056,246.285570131181
21.0856,249.542395693135
21.1153,267.289942818702
21.1449,281.720484359234
21.1745,250.05047106326
21.2041,258.700975445679
21.2337,250.566094853684
21.2633,260.347240915208
21.2929,260.187689202825
21.3225,239.223679784729
21.3521,221.947510094214
21.3818,246.684830137908
21.4114,230.202825428861
21.441,223.960296096905
21.4706,226.704339051463
21.5002,226.300033636058
21.5298,226.695593676421
21.5594,238.063257065949
21.589,244.374369323915
21.6186,245
21.6483,253.866419919247
21.6779,242.411368987554
21.7075,249.814665321224
21.7371,262.353970390309
21.7667,284.284561049445
21.7963,307.872855701312
21.8259,290.054508748316
21.8555,243.737638748737
21.8851,211.747729566094
21.9148,247.998654104982
21.9444,251.430877901108
21.974,236.807938109653
22.0036,236.902119071645
22.0332,227.29205921938
22.0628,207.236125126136
22.0924,211.425159771275
22.122,219.617092866756
22.1516,221.838546922301
22.1813,226.059199461823
22.2109,220.100269179004
22.2405,225.258324924319
22.2701,242.783047426842
22.2997,242.266487213998
22.3293,238.181298351833
22.3589,231.378405650857
22.3885,225.417900403769
22.4181,227.88933736966
22.4478,232.307433568786
22.4774,231.136608344549
22.507,223.31550622267
22.5366,216.743693239152
22.5662,233.470232088799
22.5958,232.445491251682
22.6254,253.628994281869
22.655,260.216952573157
22.6846,229.431695827724
22.7143,210.955600403633
22.7439,220.050117726202
22.7735,222.333781965007
22.8031,227.285570131179
22.8327,240
22.8623,240
22.8919,252.907837201478
22.9215,256.808947191388
22.9511,253.569650067295
22.9808,265.603430877901
23.0104,268.477295660949
23.04,277.450050454087
23.0696,289.024226110363
23.0992,337.443323242511
23.1288,359.421796165489
23.1584,303.423283983848
23.188,269.891691893711
23.2176,264.780692902792
23.2473,271.830417227456
23.2769,282.480659266733
23.3065,275.715438950556
23.3361,270.850605652758
23.3657,282.816683484695
23.3953,288.458123107972
23.4249,284.384253028265
23.4545,264.116044399596
23.4841,280.941809619913
23.5137,292.298788694483
23.5434,272.24184325597
23.573,264.287251934073
23.6026,281.495459132192
23.6322,289.118775235533
23.6618,272.554322233434
23.6914,291.754456777666
23.721,313.017496635263
23.7506,326.765893037336
23.7802,341.700302724518
23.8099,395.074024226112
23.8395,437.36898755466
23.8691,458.388832828792
23.8987,497.843539703906
23.9283,586.62966700303
23.9579,714.235452404992
23.9875,986.362045760409
24.0171,1492.34914228058
24.0467,2554.87184661946
24.0764,5088.21796165486
24.106,10531.8223418577
24.1356,16139.4402959973
24.1652,15608.8661284897
24.1948,11474.555181696
24.2244,7919.47729566078
24.254,3657.23377060208
24.2836,1804.68909825035
24.3132,1145.58358560376
24.3429,797.235452404985
24.3725,657.269179004034
24.4021,539.880928355203
24.4317,456.936091490078
24.4613,425.382907133242
24.4909,395.123444332325
24.5205,370.172552976791
24.5501,351.266487213998
24.5797,333.879919273461
24.6094,328.400269088462
24.639,305.969054826774
24.6686,297.418236877523
24.6982,304.913218970736
24.7278,303.443995963672
24.7574,273.541722745626
24.787,279.001009081735
24.8166,286.851664984863
24.8462,279.032301480485
24.8759,275.052472250253
24.9055,258.035317860747
24.9351,271.475773889636
24.9647,273.262361251264
24.9943,243.004036326944
25.0239,253.74461641992
25.0535,227.695257315843
25.0831,234.320215270771
25.1127,249.669021190717
25.1424,246.004037685059
25.172,227.397578203835
25.2016,241.339724184326
25.2312,254.930686406462
25.2608,229.537840565085
25.2904,217.188698284561
25.32,209.733512786002
25.3496,236.15909855365
25.3792,279.615539858729
25.4089,258.265141318977
25.4385,229.182980154726
25.4681,235.001009081735
25.4977,253.64266487214
25.5273,231.638412378069
25.5569,225.994954591322
25.5865,229.384925975775
25.6161,223.046417759839
25.6457,231.704339051463
25.6754,221.280524722502
25.705,234.147711978466
25.7346,231.840228725194
25.7642,212.02522704339
25.7938,208.428667563931
25.8234,226.747729566096
25.853,243.735284224689
25.8826,234.022880215344
25.9122,224.874873864784
25.9419,209.702320887992
25.9715,218.945154777927
26.0011,245.110998990915
26.0307,206.355533131518
26.0603,217.600269179004
26.0899,212.466195761857
26.1195,199.738311469897
26.1491,216.56441305079
26.1787,211.420592193809
26.2084,206.06693575513
26.238,217.844601412714
26.2676,215.559892328399
26.2972,210.970063908511
26.3268,225.622939791455
26.3564,251.36204576043
26.386,287.830474268416
26.4156,287.346115035316
26.4452,333.296769851954
26.4748,400.880255634042
26.5045,442.598049108644
26.5341,454.504037685059
26.5637,418.578203834511
26.5933,464.287251934076
26.6229,505.386271870793
26.6525,480.148671375722
26.6821,396.085771947528
26.7117,400.629330642448
26.7413,371.730820995962
26.771,340.139253279515
26.8006,358.282542885971
26.8302,441.915237134205
26.8598,599.20255720053
26.8894,642.595021863436
26.919,611.441305079044
26.9486,510.818977119782
26.9782,430.775983854691
27.0078,356.96636394214
27.0375,310.253701211308
27.0671,272.201479986546
27.0967,247.863773965691
27.1263,247
27.1559,247.955600403633
27.1855,221.365623948874
27.2151,207.690884628321
27.2447,203.228802153432
27.2743,218.953582240161
27.304,207.81331987891
27.3336,178.998654104981
27.3632,201.154725866129
27.3928,205.773965691221
27.4224,197.714670255719
27.452,214.408678102925
27.4816,236.061217625294
27.5112,218.936069986541
27.5408,210.675748402287
27.5705,232.561385805584
27.6001,241.288694481831
27.6297,200.87386478305
27.6593,204.896737302388
27.6889,209.542395693136
27.7185,209.118735284225
27.7481,230.922300706357
27.7777,240.107635385133
27.8073,225.368102288021
27.837,259.433905146319
27.8666,260.68449377733
27.8962,275.462314939435
27.9258,345.520686175576
27.9554,428.426841574172
27.985,534.085464333784
28.0146,535.845610494448
28.0442,461.809283551962
28.0738,406.327725437416
28.1035,353.877901109987
28.1331,301.937773292969
28.1627,283.935733512786
28.1923,244.293306424485
28.2219,213.985872855703
28.2515,233.328960645811
28.2811,218.021534320321
28.3107,225.84090144635
28.3403,214.632694248235
28.37,178.304845222074
28.3996,204.898082744705
28.4292,197.435923309789
28.4588,206.339165545087
28.4884,207.65893037336
28.518,207.775983854692
28.5476,215.71870794078
28.5772,221.837874201143
28.6068,227.579212916246
28.6365,236.624495289368
28.6661,260.986545576859
28.6957,292.874873864782
28.7253,321.240915208612
28.7549,301.166498486376
28.7845,277.179952909518
28.8141,239.588294651865
28.8437,207.48990578735
28.8733,203.641103262698
28.903,205.727211570804
28.9326,215.40006729475
28.9622,212.530776992936
28.9918,196.425832492432
29.0214,205.916218034992
29.051,190.819374369325
29.0806,178.491759165826
29.1102,197.227792732167
29.1398,203.920282542886
29.1695,190.539858728557
29.1991,207.018842530282
29.2287,201.95593676421
29.2583,197.717793474605
29.2879,211.151362260345
29.3175,214.987213997308
29.3471,207.333333333333
29.3767,220.55734947864
29.4063,259.274562584117
29.4359,259.960645812312
29.4656,245.471241170535
29.4952,223.835800807538
29.5248,210.777665657585
29.5544,200.038681466531
29.584,188.64064602961
29.6136,181.841574167508
29.6432,174.354187689202
29.6728,171.623149394347
29.7024,181.902455432223
29.7321,186.764211234443
29.7617,189.682368775236
29.7913,213.331987891023
29.8209,269.357887655574
29.8505,359.476959300374
29.8801,408.755383580081
29.9097,342.327951564083
29.9393,257.722502522707
29.9689,228.329744279946
29.9986,216.839219643457
30.0282,202.900437268751
30.0578,199.871803499327
30.0874,202
30.117,209.920618903464
30.1466,201.399057873487
30.1762,203.376387487385
30.2058,202.940464177599
30.2354,183.573014804844
30.2651,181.027245206862
30.2947,200.132526067946
30.3243,200.6770938446
30.3539,192.06998654105
30.3835,191.407669021191
30.4131,191.052808610831
30.4427,191.477792732167
30.4723,198.769929364279
30.5019,210.108980827447
30.5316,204.257065948857
30.5612,208.223007063573
30.5908,231.588294651869
30.6204,230.999999999998
30.65,211.07568113017
30.6796,206.914228052473
30.7092,195.921938088832
30.7388,178.516986209216
30.7684,185.658257652202
30.7981,206.422611036339
30.8277,207.686511940799
30.8573,205.261352169525
30.8869,211.027245206861
30.9165,205.303162853297
30.9461,218.041708711738
30.9757,221.862764883956
31.0053,213.791386271871
31.0349,223.098553649512
31.0646,224.917591658257
31.0942,212.492597577388
31.1238,209.302724520686
31.1534,205.841574167508
31.183,204.958950201885
31.2126,224.800874537506
31.2422,232.658257652202
31.2718,218.1100269179
31.3014,215.634712411705
31.3311,224.522704339053
31.3607,242.065926673394
31.3903,244.023553162853
31.4199,236.502859064918
31.4495,241.361251261351
31.4791,236.407806191117
31.5087,255.316851664986
31.5383,265.20080726539
31.5679,264.831090174967
31.5976,284.863437605112
31.6272,319.675075681124
31.6568,392.931359353971
31.6864,463.430205179958
31.716,537.466195761857
31.7456,536.246298788691
31.7752,456.23713420788
31.8048,357.342751429532
31.8344,345.137281292057
31.8641,315.609821728893
31.8937,321.333333333333
31.9233,346.052472250253
31.9529,350.013795423955
31.9825,371.473932055163
32.0121,371.588294651868
32.0417,401.412180349935
32.0713,458.699293642778
32.1009,489.446686848296
32.1306,406.110363391654
32.1602,363.397241843257
32.1898,334.053144971409
32.2194,357.205921938088
32.249,344.713420787084
32.2786,351.530776992937
32.3082,357.446164199192
32.3378,362.819710729901
32.3674,377.7790110999
32.397,379.297679112008
32.4267,417.209286675638
32.4563,436.784056508576
32.4859,417.726875210225
32.5155,428.51951547779
32.5451,468.55297679112
32.5747,459.451059535822
32.6043,461.386944818305
32.6339,465.838883282883
32.6635,519.453077699294
32.6932,566.897039030955
32.7228,588.935418768923
32.7524,581.426841574167
32.782,675.53432032302
32.8116,772.799865455764
32.8412,874.029263370346
32.8708,1014.26850605653
32.9004,1160.5126135217
32.93,1511.98082744699
32.9597,2032.27817019848
32.9893,2713.81527590844
33.0189,4013.68415741674
33.0485,6319.03498149974
33.0781,12154.0534993265
33.1077,25703.1829801557
33.1373,46002.7719475282
33.1669,49552.0370121117
33.1965,33866.3239152372
33.2262,31250.3434241504
33.2558,25092.7937415875
33.2854,12041.0871173899
33.315,5739.98789101898
33.3446,3513.52927321678
33.3742,2313.08207198119
33.4038,1602.55533131514
33.4334,1332.07907133246
33.463,1101.34712411705
33.4927,986.780020181636
33.5223,846.55129498823
33.5519,763.62314939435
33.5815,719.021190716449
33.6111,688.324924318865
33.6407,630.882234185733
33.6703,613.293979145637
33.6999,539.298015472587
33.7295,515.220726783312
33.7592,534.210561722168
33.7888,493.241170534814
33.8184,470.426648721399
33.848,434.349478641106
33.8776,497.728893373693
33.9072,467.800134589502
33.9368,463.185671039352
33.9664,436.931046081397
33.996,450.762193070972
34.0257,434.124158815617
34.0553,528.633703329967
34.0849,580
34.1145,574.474427994606
34.1441,440.20047090481
34.1737,392.853683148335
34.2033,417.010430686408
34.2329,346.742684157415
34.2625,378.320215270772
34.2922,395.160497981158
34.3218,403.875882946518
34.3514,395
34.381,394.904104979811
34.4106,375.963673057518
34.4402,340.121089808274
34.4698,376.713757147659
34.4994,360.200201884252
34.529,339.339051463168
34.5587,352.759838546922
34.5883,347.12916246216
34.6179,370.386271870795
34.6475,336.077699293643
34.6771,374.593340060542
34.7067,364.460296096905
34.7363,328.580558358559
34.7659,391.797847292293
34.7955,384.562584118439
34.8252,358.40766902119
34.8548,356.056508577195
34.8844,366.333781965007
34.914,354.843928691556
34.9436,396.812647157756
34.9732,376.833781965005
35.0028,388.834510595359
35.0324,404.68684830138
35.062,448.023545240497
35.0917,443.784320323016
35.1213,457.536158762195
35.1509,481.603430877901
35.1805,496.600942126514
35.2101,533.829128826101
35.2397,534.434577867474
35.2693,594.33512786003
35.2989,645.264379414734
35.3285,735.343087790109
35.3581,852.813930013457
35.3878,998.155734947877
35.4174,1297.73730238813
35.447,1684.29946164201
35.4766,2361.18062563071
35.5062,3274.69895728226
35.5358,5783.76985195166
35.5654,12186.7208207196
35.595,26477.561049445
35.6246,37127.1759165819
35.6543,26397.3135935414
35.6839,21063.3447695931
35.7135,21467.2724520687
35.7431,13825.9616419923
35.7727,6628.06458123142
35.8023,3427.83753784037
35.8319,2120.93001345905
35.8615,1470.9865455768
35.8911,1142.83451059536
35.9208,935.531628532969
35.9504,827.671039354191
35.98,687.597712748078
36.0096,637.813593539704
36.0392,577.164816683489
36.0688,554.961654894047
36.0984,465.901446350485
36.128,459.565275908477
36.1576,432.691220988901
36.1873,431.450723175244
36.2169,415.660834454913
36.2465,406.96064581231
36.2761,435.463168516649
36.3057,435.983849259757
36.3353,489.776320215272
36.3649,551.332996972753
36.3945,604.405114401078
36.4241,559.992263706698
36.4538,533.133871510258
36.4834,526.625168236877
36.513,556.168853010425
36.5426,616.992936427849
36.5722,714.082436069984
36.6018,786.300369996643
36.6314,732.937436932396
36.661,658.283551967709
36.6906,641.796769851952
36.7203,565.490413723506
36.7499,466.772283888323
36.7795,435.240915208614
36.8091,362.707702657255
36.8387,336.130171543894
36.8683,306.504710632568
36.8979,300.418096199127
36.9275,300.989909182644
36.9571,304.977792732167
36.9868,351.114698957288
37.0164,485.018163471236
37.046,810.804172274579
37.0756,948.747393205516
37.1052,729.247897746401
37.1348,630.536831483351
37.1644,670.692799461643
37.194,507.757147662288
37.2236,365.002354524052
37.2533,321.897711978466
37.2829,300.016818028926
37.3125,280.369323915237
37.3421,259.691790040379
37.3717,261.778674739322
37.4013,274.067944836866
37.4309,272.576379542396
37.4605,292.935418768922
37.4901,309.594012781702
37.5198,332.541722745623
37.5494,373.91456441305
37.579,435.260006727212
37.6086,520.559219380889
37.6382,663.137235116042
37.6678,783.029599730916
37.6974,742.800201816334
37.727,659.963660834453
37.7566,626.142280524722
37.7863,545.689202825439
37.8159,429.631897711977
37.8455,393.641103262696
37.8751,350.566431214269
37.9047,317.36204576043
37.9343,277.074672048436
37.9639,233.467541204171
37.9935,237.226110363391
38.0231,239.427850655903
38.0528,222.308779011101
38.0824,213.707267833109
38.112,210.765893037336
38.1416,201.469223007063
38.1712,204.55297679112
38.2008,217.026917900404
38.2304,211.568113017157
38.26,210.327615203497
38.2896,240.11137281292
38.3192,243.943827783383
38.3489,222.712075344768
38.3785,211.205248990578
38.4081,225.961654894046
38.4377,229.163807601751
38.4673,201.933041722747
38.4969,197.774974772956
38.5265,203.290615539858
38.5561,202.822678331091
38.5857,194.952573158425
38.6154,193.140935082408
38.645,194.333109017497
38.6746,199.805919946183
38.7042,209.692230070636
38.7338,207.136898755466
38.7634,202.581426648721
38.793,197.153716784393
38.8226,203.537840565086
38.8522,205.294751009421
38.8819,183.898082744702
38.9115,178.777665657584
38.9411,204.989232839836
38.9707,223.39152371342
39.0003,216.413723511605
39.0299,236.362718707936
39.0595,275.269761183988
39.0891,277.778338378741
39.1187,274.415881561238
39.1484,299.315842583244
39.178,359.077699293645
39.2076,466.309451732271
39.2372,722.247981157414
39.2668,1065.01816347124
39.2964,1081.69021190714
39.326,812.996971736209
39.3556,743.299697275481
39.3852,751.501513622611
39.4149,581.581090174968
39.4445,402.921627985197
39.4741,335.218970736626
39.5037,276.108344549128
39.5333,247.020181634712
39.5629,245
39.5925,239.912516823688
39.6221,219.899091826437
39.6517,210.21190716448
39.6814,220.349596231492
39.711,191.695593676421
39.7406,197.600739993274
39.7702,220.39152371342
39.7998,228.09286675639
39.8294,210.606794483685
39.859,229.263033972419
39.8886,244.193808882904
39.9182,258.119071644804
39.9479,242.391523713421
39.9775,269.192462987887
40.0071,277.867137571479
40.0367,329.636394214604
40.0663,409.716689098248
40.0959,459.711402623612
40.1255,429.895055499489
40.1551,386.769851951551
40.1847,406.81533804238
40.2144,384
40.244,386.809283551968
40.2736,387.9565948856
40.3032,347.458123107975
40.3328,297.458795829129
40.3624,293.46399730821
40.392,326.767911200809
40.4216,341.379414732592
40.4512,346.766823687751
40.4809,315.820383451052
40.5105,366.398250924992
40.5401,373.844549125166
40.5697,408.107971745706
40.5993,462.553313151702
40.6289,533.205585464331
40.6585,643.216952573163
40.6881,766.538849646844
40.7177,994.467362045767
40.7474,1465.75378405659
40.777,2622.17490750096
40.8066,5228.11335351475
40.8362,9434.73418573368
40.8658,10786.5287588292
40.8954,7055.225697948
40.925,5546.60834454903
40.9546,6471.96501849976
40.9842,4977.18062563079
41.0139,2539.05114401079
41.0435,1352.0474268416
41.0731,993.547931382441
41.1027,775.931359353983
41.1323,638.879246552306
41.1619,588.239152371338
41.1915,495.538358008075
41.2211,495.338042381432
41.2507,451.130171543898
41.2803,420.268415741678
41.31,457.995962314936
41.3396,426.934409687183
41.3692,401.899091826436
41.3988,360.189434724088
41.4284,383.22838883283
41.458,361.491422805247
41.4876,357.049125168238
41.5172,385.064244870501
41.5468,388.69424823411
41.5765,432.884253028266
41.6061,466.289606458126
41.6357,525.119071644806
41.6653,566.521197846569
41.6949,595.477295660948
41.7245,538.527413387151
41.7541,550.667563930016
41.7837,511.912209889001
41.8133,506.187352842251
41.843,396.477632021528
41.8726,415.512113055181
41.9022,390.938109653548
41.9318,386.733602421796
41.9614,363.033647375504
41.991,367.90850992264
42.0206,334.057181298355
42.0502,342.945509586277
42.0798,335.080753701211
42.1095,319.177598385468
42.1391,322.938109653549
42.1687,288.683041722743
42.1983,299.713420787083
42.2279,277.649848637739
42.2575,259.58142664872
42.2871,272.486713757148
42.3167,313.276488395557
42.3463,291.135216952575
42.376,273.783647375505
42.4056,292.940464177597
42.4352,259.973763874874
42.4648,273.057873485866
42.4944,272.126471577531
42.524,316.754793138242
42.5536,255.945154777929
42.5832,267.631685166497
42.6128,267.160780356542
42.6425,279.86473755047
42.6721,292.889337369662
42.7017,278.526740665992
42.7313,280.624495289368
42.7609,292.723175243861
42.7905,275.15438950555
42.8201,262.279946164198
42.8497,276.113017154389
42.8793,272.692230070636
42.909,283.487050117728
42.9386,267.409152086136
42.9682,272.001681802893
42.9978,286.933400605449
43.0274,275.99865410498
43.057,275.724857046754
43.0866,300.025563403967
43.1162,286.92059219381
43.1458,282.300706357215
43.1755,296.426841574167
43.2051,288.86541049798
43.2347,292.041372351161
43.2643,287.984863773965
43.2939,295.317631224764
43.3235,308.584258324923
43.3531,313.469223007064
43.3827,355.753784056503
43.4123,437.499663526245
43.442,578.489404641782
43.4716,944.471241170573
43.5012,1160.88088829072
43.5308,871.247561385759
43.5604,689.047763202165
43.59,720.844885598924
43.6196,711.569122098887
43.6492,525.528086108284
43.6788,397.259421265148
43.7085,299.468550285893
43.7381,287.291624621594
43.7677,293.080753701212
43.7973,280.213925327952
43.8269,267.623276152036
43.8565,273.331426648721
43.8861,246.628657921294
43.9157,257.215943491426
43.9453,288.56407669021
43.975,297.743606998654
44.0046,328.312142616886
44.0342,365.458123107971
44.0638,364.768506056528
44.0934,453.270433905156
44.123,544.328960645815
44.1526,635.649394347228
44.1822,620.174571140261
44.2118,563.98385469223
44.2414,529.663526244952
44.2711,505.095862764886
44.3007,430.103262697599
44.3303,401.695827725438
44.3599,375.02926337033
44.3895,361.625630676085
44.4191,365.09687184662
44.4487,335.102624495289
44.4783,304.488731920617
44.5079,279.579212916247
44.5376,244.899394347239
44.5672,224.020181634714
44.5968,218.018163471242
44.6264,218.312920592194
44.656,217.695593676421
44.6856,222.830474268415
44.7152,215.70121130552
44.7448,218.951900437268
44.7744,222.729902455432
44.8041,232.148048452223
44.8337,203.349815001689
44.8633,194.886982845611
44.8929,208.83613728129
44.9225,200.038345105954
44.9521,193.838546922301
44.9817,201.693239152371
45.0113,217.481830417229
45.0409,219.599394550959
45.0706,217.79717457114
45.1002,220.189771197846
45.1298,209.187016481669
45.1594,204.517658930374
45.189,217.477792732166
45.2186,237.135216952571
45.2482,244.853010427178
45.2778,256.524899057873
45.3074,294.819374369326
45.3371,321.512613521695
45.3667,383.22880215343
45.3963,450.115371678439
45.4259,505.590649175917
45.4555,510.747729566089
45.4851,453.179676985193
45.5147,459.080390178269
45.5443,472.373360242182
45.5739,412.484522207272
45.6036,334.905146316855
45.6332,290.505549949545
45.6628,263.82267833109
45.6924,245.418432559704
45.722,247.607467204843
45.7516,226.613055181696
45.7812,212.070635721493
45.8108,223.996636394215
45.8404,215.111036339169
45.8701,197.082408341741
45.8997,209.09989909183
45.9293,212.491924629877
45.9589,207.033299697273
45.9885,203.783383787421
46.0181,194.50655903128
46.0477,204.936742934051
46.0773,196.716448032289
46.1069,198.874537504202
46.1366,216.753701211305
46.1662,225.911873528422
46.1958,235.251934073327
46.2254,210.783983849258
46.255,206.612512613524
46.2846,225.620585267411
46.3142,206.767160161506
46.3438,197.978136562397
46.3734,178
46.4031,183.93539703903
46.4327,194.098890010091
46.4623,202.400269088465
46.4919,205.889673730238
46.5215,180.473755047105
46.5511,164.481331987892
46.5807,181.805247225025
46.6103,178.423956931359
46.6399,175.610158089472
46.6696,185.498486377395
46.6992,210.076379542398
46.7288,205.500504540863
46.7584,181.136562394889
46.788,190.60262449529
46.8176,196.470568449378
46.8472,189.918264379413
46.8768,177.231157469718
46.9064,191.161789438276
46.9361,200.692230070636
46.9657,191
46.9953,186.163807601751
47.0249,192.007063572143
47.0545,215.949545913219
47.0841,208.991924629878
47.1137,228.459804910866
47.1433,253.408678102927
47.1729,264.621803499323
47.2025,296.844937773294
47.2322,318.619239825103
47.2618,385.343203230148
47.2914,385.511268079381
47.321,367.017154389505
47.3506,390.359353970386
47.3802,416.387823747062
47.4098,388.600403632693
47.4394,383.61372812921
47.469,351.914228052472
47.4987,343.440968718466
47.5283,341.724857046754
47.5579,329.35296096904
47.5875,289.197780020178
47.6171,266.574167507569
47.6467,263.257738896367
47.6763,235.413050790445
47.7059,219.249579549277
47.7355,220.981157469717
47.7652,216.66397578204
47.7948,195.440968718466
47.8244,202.594549125169
47.854,212.6222670703
47.8836,221.183316515304
47.9132,228.653768506055
47.9428,213.715438950557
47.9724,199.424823410697
48.002,197.991251682368
48.0317,218.989236461485
48.0613,187.256979482004
48.0909,199.012108980826
48.1205,207.266487213997
48.1501,197.771947527752
48.1797,218.991590985535
48.2093,207.837146702557
48.2389,214.563067608477
48.2685,210.628657921292
48.2982,218.991251682366
48.3278,205.786747393203
48.3574,229.688530104274
48.387,213.168236877523
48.4166,240.472250252271
48.4462,247.285233770602
48.4758,274.420592193807
48.5054,296.892700975447
48.535,308.670030272455
48.5647,273.632694248233
48.5943,255.356998654105
48.6239,232
48.6535,234.782374705681
48.6831,253.511440107671
48.7127,247.638748738647
48.7423,234.320215270769
48.7719,265.375504710631
48.8015,249.790447359564
48.8312,294.412041708715
48.8608,260.096567967705
48.8904,303.028254288596
48.92,280.580894719136
48.9496,331.468371467031
48.9792,284.747729566096
49.0088,298.352169525725
49.0384,359.810228802154
49.068,348.936764211232
49.0977,403.702320887992
49.1273,445.128489741003
49.1569,526.934051144012
49.1865,659.323915237108
49.2161,819.431550622256
49.2457,905.972409152092
49.2753,1038.03060881262
49.3049,1347.8324924319
49.3345,1994.10228802147
49.3642,3195.48133198782
49.3938,6050.94147325971
49.4234,11634.3620457603
49.453,16950.1974436592
49.4826,13633.3622603429
49.5122,7972.48721399738
49.5418,7256.19912546256
49.5714,9316.42011436261
49.601,8729.00000000001
49.6307,5114.65085771909
49.6603,2688.28970390311
49.6899,1631.92667339393
49.7195,1141.71611167172
49.7491,884.547442799488
49.7787,626.749747729546
49.8083,557.727211570809
49.8379,512.377860026922
49.8675,418.358224016148
49.8972,448.740329633369
49.9268,411.601615074028
49.9564,380.37638748739
49.986,362.829128826101
50.0156,328.848923283981
50.0452,302.486713757151
50.0748,295.369323915238
50.1044,333.309892328403
50.134,317.399260006728
50.1636,286.378742011435
50.1933,281.226034308779
50.2229,312.300134589499
50.2525,296.67507568113
50.2821,274.026908846282
50.3117,320.113728129204
50.3413,337.648503195425
50.3709,328.210898082743
50.4005,367.275908479143
50.4301,358.639757820385
50.4598,434.401614530767
50.4894,489.165545087479
50.519,547.875882946514
50.5486,586.568113017153
50.5782,540.376850605646
50.6078,514.761856710396
50.6374,467.930373360249
50.667,466.158425832493
50.6966,411.382570659493
50.7263,375.504540867807
50.7559,345.490413723508
50.7855,332.537685060567
50.8151,300.691220988898
50.8447,288.29969727548
50.8743,255.329071332435
50.9039,259.778674739321
50.9335,250.453414059872
50.9631,254.565275908479
50.9928,229.769256643122
51.0224,248.460141271444
51.052,256.433714670256
51.0816,227.950554994957
51.1112,219.394887319206
51.1408,233.372139973082
51.1704,198.880928355194
51.2,219.011436259669
51.2296,211.291960982172
51.2593,211.707940780619
51.2889,216.901782711067
51.3185,236.62361251261
51.3481,231.193808882907
51.3777,232.605449041372
51.4073,230.183989236462
51.4369,238.86810228802
51.4665,232.942482341069
51.4961,217.993272788428
51.5258,218.49798115747
51.5554,231.92600067272
51.585,293.798183652884
51.6146,309.578734858681
51.6442,329.977800201817
51.6738,312.512277161115
51.7034,276.208613728126
51.733,265.280188361924
51.7626,268.577194752774
51.7923,254.282542885971
51.8219,216.746971736209
51.8515,217.414396232763
51.8811,247.55768583922
51.9107,264.277590847915
51.9403,280.171543895056
51.9699,297.710729902455
51.9995,311.901413189771
52.0291,337.094180961993
52.0588,372.139589640093
52.0884,398.18135935397
52.118,447.946518668015
52.1476,541.000000000012
52.1772,567.062247644684
52.2068,519.213252606795
52.2364,514.001009081736
52.266,497.019508913551
52.2956,466.866083445493
52.3253,410.309451732264
52.3549,366.077362933067
52.3845,350.276581426648
52.4141,339.419778002017
52.4437,308.652875882946
52.4733,297.36204576043
52.5029,270.911537167839
52.5325,250.541876892028
52.5621,271.583445491253
52.5918,275.638748738648
52.6214,258.10797174571
52.651,258.21130551817
52.6806,258.226370669357
52.7102,257.961654894046
52.7398,265.881561238222
52.7694,264.160780356543
52.799,249.568113017154
52.8286,253.503531786073
52.8583,282.102624495292
52.8879,271.344096871845
52.9175,238.421796165491
52.9471,242.039367429344
52.9767,254.114698957282
53.0063,236.751765893034
53.0359,232.975773889634
53.0655,233.83148335015
53.0951,235.102926337035
53.1247,237.711978465679
53.1544,238.816347124117
53.184,255.738647830472
53.2136,260.154441453568
53.2432,256.089471913891
53.2728,262.143962327615
53.3024,263.431886982845
53.332,281.376850605648
53.3616,290.390514631683
53.3912,288.013454423142
53.4209,311.500000000003
53.4505,327.495795492768
53.4801,324.068617558022
53.5097,321.948855989233
53.5393,349.599730911535
53.5689,365.033972418432
53.5985,365.758411843879
53.6281,396.51765893037
53.6577,414
53.6874,470.730820995948
53.717,557.658257652199
53.7466,614.950891355538
53.7762,702.292059219385
53.8058,819.796165489414
53.8354,965.5348133199
53.865,1147.73595694586
53.8946,1423.27759084789
53.9242,1974.3935418768
53.9539,3081.26942482356
53.9835,5312.49192462974
54.0131,9959.82273797459
54.0427,16553.3377060215
54.0723,18616.5477792729
54.1019,13415.3683148344
54.1315,8773.44164143945
54.1611,8388.51581426649
54.1907,10131.2381432898
54.2204,10069.0369996636
54.25,6819.16958277239
54.2796,3767.83148335018
54.3092,2301.26707029934
54.3388,1635.57282206529
54.3684,1313.83310901748
54.398,1147.19273461152
54.4276,1039.60780356545
54.4572,894.355316285323
54.4869,788.207534476971
54.5165,714.601412714431
54.5461,669.082099596232
54.5757,627.023208879914
54.6053,557.802219979822
54.6349,513.197173620465
54.6645,445.978809283555
54.6941,415.501513622605
54.7237,373.531628532973
54.7534,370.296670030276
54.783,381.728557013123
54.8126,338.255720053836
54.8422,324.566431214261
54.8718,313.922300706357
54.9014,305.483013790783
54.931,303.495625841185
54.9606,306.41002354524
54.9902,300.350151362259
55.0199,277.70154777927
55.0495,252.855701311806
55.0791,249.03329969728
55.1087,232.353633916557
55.1383,267.455768583921
55.1679,266.700302724526
55.1975,235.037012113049
55.2271,265.080053817693
55.2567,267.421123444332
55.2864,258.528263795424
55.316,263.751765893037
55.3456,275.60242179617
55.3752,298.953918600742
55.4048,285.226110363395
55.4344,299.432223343425
55.464,288.251261352169
55.4936,270.908479138622
55.5232,252.488059199468
55.5529,285.121426168853
55.5825,274.462987886945
55.6121,244.042717793476
55.6417,233
55.6713,233
55.7009,233.793810965355
55.7305,236.611839892365
55.7601,235.189771197846
55.7897,239.527749747729
55.8194,264.04843592331
55.849,303.098250336473
55.8786,290.187352842245
55.9082,250.031281533804
55.9378,256.340060544904
55.9674,263.326379542396
55.997,264.363605785402
56.0266,262.083081062899
56.0562,270.256056527591
56.0858,297.046417759846
56.1155,392.804238143282
56.1451,464.836137281288
56.1747,402.291960982166
56.2043,355.096535486037
56.2339,323.256393001346
56.2635,324.007063572149
56.2931,318.436932391523
56.3227,324.498990578729
56.3523,284.767238479649
56.382,242.227716111671
56.4116,233.139253279514
56.4412,208.898384925976
56.4708,206.341742347797
56.5004,192.024890682813
56.53,201.467025572005
56.5596,197.52573158426
56.5892,212.311806256306
56.6188,193.684387617766
56.6485,200.945173225697
56.6781,190.342078708377
56.7077,219.467698519512
56.7373,197.311806256309
56.7669,188.745711402623
56.7965,216.461641991925
56.8261,206.701311806257
56.8557,201.862764883956
56.8853,220.328398384925
56.915,227.434914228051
56.9446,214.071981163808
56.9742,216.094853683148
57.0038,219.190780619112
57.0334,225.721493440968
57.063,214.301379078372
57.0926,230.303835800809
57.1222,251.208543558698
57.1518,271.006054490414
57.1815,272.353297442799
57.2111,342.001009081736
57.2407,342.996636394215
57.2703,319.185671039355
57.2999,373.352288021532
57.3295,436.966700302727
57.3591,543.784056508585
57.3887,791.810228802163
57.4183,1258.2885973764
57.448,1486.38412378068
57.4776,1375.18567103936
57.5072,1392.15612382234
57.5368,2047.7810292634
57.5664,3585.45576858379
57.596,4206.54104979807
57.6256,3215.93945509582
57.6552,2025.96636394211
57.6848,1580.50807537011
57.7145,1807.47225025227
57.7441,2135.85704675413
57.7737,1761.46769851947
57.8033,1173.85267406661
57.8329,752.485368314837
57.8625,552.676985195171
57.8921,442.410023545235
57.9217,418.517658930374
57.9513,370.14401076716
57.981,313.694248234108
58.0106,325.018836192398
58.0402,324.325933400605
58.0698,326.661843876177
58.0994,285.501513622607
58.129,253.642785065588
58.1586,271.862382234185
58.1882,250.635385132866
58.2178,235.744702320889
58.2475,228.809555854644
58.2771,222.835519677093
58.3067,193.739656912209
58.3363,222.239232839841
58.3659,216.976454759503
58.3955,225.966700302723
58.4251,194.419919246305
58.4547,203.033299697276
58.4843,240.06323578877
58.514,213.80793810965
58.5436,221.862718707937
58.5732,219.250252270433
58.6028,249.046754120417
58.6324,247.870794078062
58.662,255.703329969726
58.6916,221.005045408675
58.7212,190.396366083443
58.7508,207.283215607128
58.7805,209.820719811638
58.8101,206.627860026918
58.8397,217.796165489406
58.8693,188.154389505543
58.8989,181.333781965007
58.9285,184.320887991928
58.9581,187.307769929365
58.9877,187.234858681023
59.0173,207.542885973764
59.0469,201.896400941811
59.0766,197.244534140599
59.1062,181.973082099595
59.1358,187.45879582913
59.1654,191
59.195,207.98687752355
59.2246,200.04877228389
59.2542,176.02253615876
59.2838,188.595895020186
59.3134,192.392532795157
59.3431,213.335015136225
59.3727,204.091184387618
59.4023,214.801883619241
59.4319,227.661621257988
59.4615,230.703566621803
59.4911,233.097880928356
59.5207,258.322233434248
59.5503,289.716448032288
59.5799,265.366083445498
59.6096,230.120417087116
59.6392,201.247225025225
59.6688,196.738896366083
59.6984,199.67272115708
59.728,210.693575512951
59.7576,180.133243607004
59.7872,186.417759838547
59.8168,196.3777329297
59.8464,177.411843876178
59.8761,171.90312815338
59.9057,200.492095526403
59.9353,213.71601615074
59.9649,204.07164480323
59.9945,196.466532122435
60.0241,201.92126514132
60.0537,202.250252270434
60.0833,168.970736629667
60.1129,171.567440296004
60.1426,189.92328398385
60.1722,208.890346451398
60.2018,214.145644130507
60.2314,200.755383580082
60.261,188.016145307771
60.2906,203.008409014462
60.3202,195.945491251684
60.3498,189.612848974101
60.3794,207.787083753784
60.4091,197.846231493948
60.4387,198.404641775981
60.4683,219.864446686845
60.4979,206.997644683719
60.5275,199.451059535824
60.5571,206.559031281534
60.5867,194.797510931718
60.6163,208.670255720048
60.6459,219.260006727212
60.6756,200.549949545914
60.7052,201.820995962314
60.7348,214.757820383451
60.7644,210.013118062562
60.794,199.830417227456
60.8236,199.620248906829
60.8532,218.10998990918
60.8828,218.566621803499
60.9124,204.488731920619
60.9421,210.633366969392
60.9717,240.784656796765
61.0013,253.963000336359
61.0309,253.452068617561
61.0605,257.574024226111
61.0901,236.349815001686
61.1197,220.484695593677
61.1493,230.126135216955
61.1789,238.095558546434
61.2086,237.425832492432
61.2382,230.994618230742
61.2678,220.599932705249
61.2974,215.300033636059
61.327,230.241170534814
61.3566,233.482166890982
61.3862,217.195425496134
61.4158,220.210561722167
61.4454,223.586810228799
61.4751,254.171543895059
61.5047,263.794147325935
61.5343,236.775908479141
61.5639,235.680457450393
61.5935,251.884291960983
61.6231,254.443995963672
61.6527,252.880215343201
61.6823,246.976118398926
61.7119,253.346115035319
61.7416,253.671601615075
61.7712,260.396232761519
61.8008,263.948536831483
61.8304,275.746298788695
61.86,290.092162798522
61.8896,296.789101917255
61.9192,293.765814266488
61.9488,313.375378405651
61.9784,319.565085771946
62.008,344.037012113054
62.0377,397.812983518319
62.0673,459.017154389502
62.0969,515.946837146711
62.1265,580.88496468214
62.1561,598.812983518335
62.1857,643.799192734625
62.2153,753.592193808907
62.2449,945.229061553989
62.2745,1209.36427850656
62.3042,1714.69582772551
62.3338,2684.55499495476
62.3634,4669.52505886284
62.393,8292.26009421334
62.4226,11533.3642785065
62.4522,10566.973427515
62.4818,6742.36271870819
62.5114,4508.04507231746
62.541,4262.77295660939
62.5707,5448.26850605668
62.6003,6581.73965691229
62.6299,5378.67070299334
62.6595,3267.93171880234
62.6891,1943.79138627178
62.7187,1263.13319878915
62.7483,913.986881937461
62.7779,718.671601615068
62.8075,636.588294651853
62.8372,558.145644130515
62.8668,489.769851951554
62.8964,447.863773965698
62.926,397.546249579549
62.9556,370.281292059221
62.9852,335.563067608477
63.0148,336.877901109986
63.0444,344.920592193802
63.074,313.894382778337
63.1037,333.548604103599
63.1333,324.915208613727
63.1629,297.609821728892
63.1925,293.045408678107
63.2221,306.331651530442
63.2517,303.472072678328
63.2813,307.393541876897
63.3109,272.132189707367
63.3405,297.253028263803
63.3702,337.366296670037
63.3998,288
63.4294,297.28364737551
63.459,346.473259333999
63.4886,375.098890010084
63.5182,354.277590847911
63.5478,392.477295660948
63.5774,407.894046417763
63.607,433.169919246295
63.6367,492.827783383781
63.6663,535.952573158418
63.6959,643.788092835509
63.7255,728.557200538368
63.7551,816.528758829469
63.7847,985.507568113022
63.8143,1122.39165545085
63.8439,1380.72250252268
63.8735,1884.12613521699
63.9032,3019.64939434729
63.9328,5263.26000672787
63.9624,9149.76589303778
63.992,12216.1965006725
64.0216,9939.77598385449
64.0512,5929.40430541529
64.0808,3950.78802153433
64.1104,4118.88597376376
64.14,5376.85166498463
64.1697,6624.67362045759
64.1993,5325.18836192435
64.2289,3039.32896064591
64.2585,1806.43289606454
64.2881,1143.17261103634
64.3177,889.014127144285
64.3473,721.216616212575
64.3769,594.280955585468
64.4065,511.272452068619
64.4362,460.091826437941
64.4658,440.879542395697
64.4954,396.032963336694
64.525,373.510258997644
64.5546,361.866083445492
64.5842,386.882946518669
64.6138,383.373360242181
64.6434,397.774226110364
64.673,386.439623276156
64.7027,352.721493440967
64.7323,334.866801210897
64.7619,322.966352624495
64.7915,318.072653884968
64.8211,344.9545913219
64.8507,300.272452068622
64.8803,308.909152086136
64.9099,254.795492768242
64.9395,260.868146653212
64.9691,237.549125168239
64.9988,229.191052808611
65.0284,221.22603430878
65.058,231.644683714671
65.0876,232.963336696939
65.1172,194.641439623277
65.1468,216.872812920591
65.1764,220.851664984864
65.206,216.269088462832
65.2356,195.273216689095
65.2653,186.470904809955
65.2949,203.798520013452
65.3245,200.338042381433
65.3541,196.2866756393
65.3837,213.555667675745
65.4133,211.321560713084
65.4429,236.635262449526
65.4725,192.52875882947
65.5021,238.782374705683
65.5318,213.191790040372
65.5614,197.375042045074
65.591,197.794820047091
65.6206,222.120121130553
65.6502,205.441977800199
65.6798,176.461150353177
65.7094,208.222072678334
65.739,218.257315842583
65.7686,219.871846619576
65.7983,196.487386478302
65.8279,212.935397039029
65.8575,223.761856710394
65.8871,239.586949209555
65.9167,226.628532974429
65.9463,241.842583249243
65.9759,277.120417087125
66.0055,311.600269179009
66.0351,340.432223343425
66.0648,348.343424150689
66.0944,329.037685060567
66.124,358.097880928357
66.1536,355.946182307434
66.1832,354
66.2128,337.706693575513
66.2424,313.742684157415
66.272,314.643337819651
66.3016,307.981163807602
66.3313,277.969391187359
66.3609,277.372014799867
66.3905,275.038021534321
66.4201,249.569122098893
66.4497,254.755802219977
66.4793,248.644683714671
66.5089,253.753111335351
66.5385,265.25126135217
66.5681,280.269179004041
66.5978,280.936427850656
66.6274,337.875546585948
66.657,312.828061911169
66.6866,327.618230743358
66.7162,298.814328960652
66.7458,262.916890982498
66.7754,272.027581567444
66.805,289.775311133535
66.8346,250.104944500492
66.8643,247.154777927318
66.8939,243.281533804237
66.9235,235.667003027244
66.9531,238.308209959623
66.9827,222.156071308446
67.0123,217.837537840565
67.0419,212.652759084793
67.0715,214.205852674067
67.1011,182.563067608476
67.1308,188.179004037688
67.1604,200.457786747394
67.19,189.630676084761
67.2196,180.584791386271
67.2492,193.933064244874
67.2788,178.744702320884
67.3084,177.383580080754
67.338,192.655903128155
67.3676,193.36865119408
67.3973,171.18163471241
67.4269,160.343539703903
67.4565,158.695593676421
67.4861,189.743693239151
67.5157,183.827725437417
67.5453,164.605785401951
67.5749,173.700975445678
67.6045,180.369111709287
67.6341,171.227043390515
67.6638,186.645812310792
67.6934,200.864401076716
67.723,210.023881601078
67.7526,202.130171543892
67.7822,175.7395693136
67.8118,192.408678102922
67.8414,203.199125462496
67.871,187.873192061893
67.9006,184.549125168237
67.9302,206.380423814335
67.9599,205.343087790114
67.9895,192.089502018843
68.0191,196.356542213254
68.0487,204.440968718466
68.0783,185.366083445486
68.1079,176.911200807267
68.1375,199.260679448363
68.1671,196.417227456258
68.1967,168.535486041036
68.2264,165.372014799867
68.256,176.28263795424
68.2856,171.942482341068
68.3152,172.462159434914
68.3448,184.411843876177
68.3744,187.879582912882
68.404,187.051463168517
68.4336,183.829128826101
68.4632,176.897039030956
68.4929,171.418432559704
68.5225,184.870164816678
68.5521,197.969044414536
68.5817,191.971745711401
68.6113,176.020181634713
68.6409,184.293068640641
68.6705,192.731247897748
68.7001,182.918264379415
68.7297,190.821668909827
68.7594,212.846619576191
68.789,227.661284897411
68.8186,237.709623149394
68.8482,246.44029599731
68.8778,256.17457114026
68.9074,263.58526740666
68.937,251.277927321669
68.9666,244.972082071982
68.9962,229.529767911201
69.0259,235.600269179006
69.0555,249.558022199798
69.0851,243.311133535148
69.1147,242.06729475101
69.1443,246.566431214263
69.1739,237.751765893039
69.2035,233.682368775235
69.2331,223.091153716791
69.2627,214.064917591657
69.2924,225.766487213997
69.322,229.290951900437
69.3516,242.636730575178
69.3812,240.641991924627
69.4108,239.191725529765
69.4404,287.899091826429
69.47,355.826437941478
69.4996,489.256393001394
69.5292,751.741002354544
69.5589,1065.10528086105
69.5885,1246.99932705249
69.6181,1055.72250252268
69.6477,745.611503531781
69.6773,571.76211305516
69.7069,495.453414059867
69.7365,572.482677430191
69.7661,650.623149394341
69.7957,695.817356205862
69.8254,588.786074672066
69.855,413.888290713327
69.8846,322.679448368649
69.9142,283.408678102927
69.9438,220.902119071644
69.9734,204.958950201884
70.003,210.470568449377
70.0326,212.399596367304
70.0622,197.238223418574
70.0919,188.857383114697
70.1215,176.758829465188
70.1511,163.569313593541
70.1807,171.120080726539
70.2103,174.489741002352
70.2399,180.598923283986
70.2695,163.683148335016
70.2991,164.133871510258
70.3287,152.368775235532
70.3584,154.50655903128
70.388,167.198789101916
70.4176,155.312247644683
70.4472,162.358224016145
70.4768,166.667003027245
70.5064,157.239488731917
70.536,175.264131897712
70.5656,175.894046417761
70.5952,187.604776320217
70.6249,196.943472409152
70.6545,205.793810965357
70.6841,222.95358224016
70.7137,214.438425302825
70.7433,201.992936427854
70.7729,185.154725866124
70.8025,209.111709286677
70.8321,185.969054826774
70.8617,187.045408678104
70.8913,202.259757738893
70.921,189.886982845612
70.9506,207.610494450047
70.9802,172.840174966359
71.0098,203.456441305084
71.0394,174.490413723511
71.069,198.855364951228
71.0986,214.606998654107
71.1282,198.829128826099
71.1578,182.711402623616
71.1875,208.130551816959
71.2171,211.481331987888
71.2467,198.765220316179
71.2763,203.148721399731
71.3059,209.640766902123
71.3355,234.163471241167
71.3651,184.213997308212
71.3947,214.823747056852
71.4243,238.342751429533
71.454,229.909825033645
71.4836,253.183316515308
71.5132,275.763874873865
71.5428,279.798183652883
71.5724,325.765477792731
71.602,331.578876555668
71.6316,327.293642785066
71.6612,323.993606998655
71.6908,353.942482341072
71.7205,380.776656575854
71.7501,468.980484522209
71.7797,593.886646485045
71.8093,724.251261352167
71.8389,1011.37012113056
71.8685,1553.39421459815
71.8981,2505.53817692587
71.9277,3928.64535666218
71.9573,3845.13319878903
71.987,2761.14732593355
72.0166,1838.42664872132
72.0462,1406.777329297
72.0758,1355.7682475614
72.1054,1655.54288597382
72.135,2159.86944818305
72.1646,2222.25866128501
72.1942,1688.16818028928
72.2238,1326.73418573352
72.2535,1267.10359905817
72.2831,1086.38042381433
72.3127,875.803499327015
72.3423,627.766902119069
72.3719,487.794483686509
72.4015,440.999999999997
72.4311,490.798115746966
72.4607,558.428187016476
72.4903,587.629330642446
72.52,447.911170928678
72.5496,386.087453750419
72.5792,305.79818365289
72.6088,285.504877228386
72.6384,219.082099596243
72.668,214.104944500504
72.6976,233.212916246215
72.7272,214.868102288021
72.7568,203.525395223679
72.7865,186.829128826104
72.8161,186
72.8457,182.228725193408
72.8753,200.768920282541
72.9049,159.952557200532
72.9345,195.131516986211
72.9641,181.338042381434
72.9937,185.529609690444
73.0233,164.903128153384
73.053,168.497477295662
73.0826,165.351278600269
73.1122,172.262697611841
73.1418,152.220316178946
73.1714,163.48637739657
73.201,174.845222072678
73.2306,175.109317188026
73.2602,151.069626639754
73.2898,143.588829071333
73.3195,152.693911873528
73.3491,133.83148335015
73.3787,148.456258411846
73.4083,143.183652875885
73.4379,140.271779347461
73.4675,148.600269179004
73.4971,146.577194752774
73.5267,154.513286242853
73.5563,152.611036339166
73.586,163.847965018502
73.6156,155.055163134882
73.6452,126.198789101918
73.6748,149.337146702564
73.7044,148.366969391186
73.734,153.598049108646
73.7636,157.46197846568
73.7932,140.040363269422
73.8228,146.555667675747
73.8524,137.689771197845
73.8821,138.227716111671
73.9117,170.299697275478
73.9413,143.666554508744
73.9709,162.001009081735
74.0005,154.784056508577
74.0301,151.785666218035
74.0597,143.404978136563
74.0893,143.330978809283
74.1189,146.31864064603
74.1486,170.930373360244
74.1782,174.929700639085
74.2078,152.630339724181
74.2374,138.409152086136
74.267,162.417759838547
74.2966,155.241170534814
74.3262,153.731493943472
74.3558,160.194080053818
74.3854,141.346115035317
74.4151,149.474427994615
74.4447,158.662966700304
74.4743,157.087117389843
74.5039,163.965006729474
74.5335,161.961318533469
74.5631,139.252270433898
74.5927,158.029609690445
74.6223,169
74.6519,155.649512277164
74.6816,145.088462832156
74.7112,145.092530282638
74.7408,168.183652875887
74.7704,172.489068281196
74.8,171.369448183042
74.8296,161.793138244197
74.8592,173.902119071646
74.8888,185.359690444146
74.9184,189.003027245206
74.9481,189.333333333334
74.9777,181.049798115746
75.0073,190.823410696264
75.0369,209.769929364279
75.0665,226.395693135935
75.0961,223.608812647156
75.1257,246.567440296004
75.1553,270.280282637953
75.1849,303.471241170532
75.2146,310.524722502524
75.2442,323.19206189035
75.2738,366.403768506061
75.3034,455.317188025537
75.333,598.783047426866
75.3626,926.89771197852
75.3922,1433.60982172882
75.4218,2105.51530440623
75.4514,2442.64737550472
75.4811,2001.97443659609
75.5107,1341.67103935427
75.5403,912.849259757761
75.5699,776.080390178272
75.5995,885.853010427149
75.6291,1188.51749663521
75.6587,1386.83955600403
75.6883,1297.94618230745
75.7179,954.110326269687
75.7476,605.621130551854
75.7772,437.723847965027
75.8068,353.314833501514
75.8364,307.573014804844
75.866,284.841237806925
75.8956,240.048099562735
75.9252,222.720053835798
75.9548,228.809283551968
75.9844,202.266397578202
76.0141,187.318977119785
76.0437,194.044735956946
76.0733,191.892028254288
76.1029,204.92765814266
76.1325,204.202825428854
76.1621,185.968718466196
76.1917,187.008075370121
76.2213,190.503195425496
76.2509,194.431886982844
76.2806,189.662966700305
76.3102,189.744279946164
76.3398,191.305751765891
76.3694,174.3417423478
76.399,174.539703903094
76.4286,182.119071644803
76.4582,175.341405987219
76.4878,180.156123822344
76.5174,180.56374032963
76.5471,171.10797174571
76.5767,176.452220726783
76.6063,176.103935418769
76.6359,161.690211907172
76.6655,154.667563930016
76.6951,159.60073999327
76.7247,159.048435923313
76.7543,157.778338378737
76.7839,140.844549125168
76.8135,149.943827783381
76.8432,165.587958291288
76.8728,166.632907133243
76.9024,159.408678102926
76.932,164.447359569459
76.9616,177.001009421268
76.9912,172.935418768924
77.0208,151.433905146316
77.0504,150.936406460296
77.08,151.318197107299
77.1097,152.349478641103
77.1393,162.133580080753
77.1689,160.263033972418
77.1985,162.863773965691
77.2281,174.349259757739
77.2577,163.669021190715
77.2873,165.626639757822
77.3169,185.11301715439
77.3465,184.825033647374
77.3762,180.124117053482
77.4058,189.084762865793
77.4354,200.754374158818
77.465,210.328287924655
77.4946,202.050454086785
77.5242,210.890982503362
77.5538,248.070635721493
77.5834,257.63908509923
77.613,317.353297442807
77.6427,423.017827110685
77.6723,585.942482341047
77.7019,847.318304172332
77.7315,1020.0639085099
77.7611,866.518331651545
77.7907,611.783047426814
77.8203,456.097240915219
77.8499,396.944836865126
77.8795,393.725193407345
77.9092,471.322341857329
77.9388,577.000672721155
77.9684,566.210898082754
77.998,483.5683041723
78.0276,368.959300369994
78.0572,277.940127817018
78.0868,235.743270524899
78.1164,228.044399596368
78.146,214.057181298352
78.1757,207.274226110363
78.2053,201.432896064581
78.2349,188.599394550958
78.2645,181.250336473757
78.2941,167.724520686177
78.3237,152.558694920955
78.3533,152.081399260007
78.3829,161.935397039027
78.4125,187.533804238142
78.4422,194.380423814322
78.4718,171.025572005385
78.5014,182.770602085432
78.531,202.269761183991
78.5606,221.518169582771
78.5902,232.084762865795
78.6198,254.713757147656
78.6494,274.407133243606
78.679,278.929364278493
78.7087,357.313151698602
78.7383,483.626514131921
78.7679,589.066599394539
78.7975,501.907837201456
78.8271,362.298015472588
78.8567,351.495962314938
78.8863,340.512613521695
78.9159,337.639421459816
78.9455,418.458950201884
78.9752,479.482341069626
79.0048,449.409687184662
79.0344,423.616419919256
79.064,314.531786074665
79.0936,277.850992263702
79.1232,244.270188425306
79.1528,272.88059199462
79.1824,242.460141271446
79.212,257.971399730823
79.2417,217.465186680114
79.2713,242.927682475605
79.3009,196.46601615074
79.3305,199.6629667003
79.3601,186.508577194753
79.3897,190.552976791122
79.4193,175.368775235533
79.4489,190.056508577195
79.4785,166.014127144296
79.5082,178.134589502015
79.5378,153.001009081735
79.5674,167.418096199124
79.597,157.892328398385
79.6266,155.004372687519
79.6562,137.407669021185
79.6858,167.738896366082
79.7154,184.334006054493
79.745,166.053817692567
79.7746,139.328398384921
79.8043,185.082744702321
79.8339,186.955600403635
79.8635,143.339051463171
79.8931,161.37617765815
79.9227,187.218970736631
79.9523,207.848637739657
79.9819,183
80.0115,183
80.0411,195.91254624958
80.0708,169.208879919276
80.1004,206.552489905789
80.13,194.209889001012
80.1596,211.63067608476
80.1892,213.950874831763
80.2188,201.376051126809
80.2484,208.733602421795
80.278,222.477119784658
80.3076,214.375378405652
80.3373,231.231079717457
80.3669,241.532301480485
80.3965,287.545913218978
80.4261,301.334006054492
80.4557,375.329969727558
80.4853,442.716689098259
80.5149,558.806256306742
80.5445,751.541876891974
80.5741,944.193808882911
80.6038,1004.1927346115
80.6334,1008.91792801884
80.663,1304.17765814262
80.6926,1591.21291624618
80.7222,1512.90817356207
80.7518,1176.71130551823
80.7814,962.549276824727
80.811,853.655903128137
80.8406,743.511440107652
80.8703,730.112680793811
80.8999,759.137235116041
80.9295,903.571812983534
80.9591,875.777254374168
80.9887,741.085771947528
81.0183,521.136226034273
81.0479,370.22240915207
81.0775,310.702993609145
81.1071,273.291624621596
81.1368,264.590847913863
81.1664,248.736629667006
81.196,211.412714429873
81.2256,194.925975773889
81.2552,207.198116380759
81.2848,187.568113017159
81.3144,170.599259757738
81.344,207.475277497485
81.3736,180.006727211575
81.4033,176.903768506057
81.4329,179.625967036663
81.4625,189.703329969727
81.4921,200.846619576185
81.5217,195.798788694483
81.5513,180.470904809958
81.5809,185.706020854356
81.6105,181.701211305519
81.6401,184.69828456105
81.6698,184.435923309788
81.6994,188.667563930013
81.729,182.263706693577
81.7586,178.461486713757
81.7882,182.590847913862
81.8178,171.065590312818
81.8474,169.269424823411
81.877,174.514131897712
81.9066,176
81.9363,184.964682139255
81.9659,172.403632694251
81.9955,192.11103633916
82.0251,183.377396569117
82.0547,184.299024554324
82.0843,171.032974427996
82.1139,153.456104944504
82.1435,150.434241506896
82.1731,148.148048452221
82.2028,164.801883619238
82.2324,153.599730911536
82.262,163.589165545086
82.2916,171.699293642785
82.3212,174.084762865792
82.3508,164.638290713327
82.3804,193.639085099216
82.41,172.846619576187
82.4396,174.983849259763
82.4693,185.354187689203
82.4989,177.927346115034
82.5285,196.72384796502
82.5581,227.261776581423
82.5877,211.262361251254
82.6173,208.489068281199
82.6469,223.771197846567
82.6765,227.705684493777
82.7061,242.426841574174
82.7357,279.738223418576
82.7654,328.524722502518
82.795,391.335687857369
82.8246,489.358681022862
82.8542,670.740665993985
82.8838,1020.85166498484
82.9134,1494.05921938088
82.943,1780.05079044737
82.9726,1648.14968045742
83.0022,1258.28355196772
83.0319,886.544414535687
83.0615,666.04540867809
83.0911,583.021527077028
83.1207,657.065612382257
83.1503,810.93979145647
83.1799,959.116044399609
83.2095,984.376850605655
83.2391,820.377060208592
83.2687,606.152371342035
83.2984,441.396366083445
83.328,346.759165825763
83.3576,305.347124117053
83.3872,258.599596231485
83.4168,214.481331987885
83.4464,213.563740329633
83.476,209.906460296101
83.5056,200.151362260344
83.5352,207.334678775648
83.5649,205.078035654224
83.5945,206.92395693136
83.6241,201.946855028588
83.6537,179.047426841571
83.6833,169.546433378196
83.7129,159.240834174238
83.7425,166.755129498828
83.7721,176.45423956931
83.8017,174.97880928355
83.8314,175.532795156405
83.861,172.946164199192
83.8906,169.663975782041
83.9202,163.45408678103
83.9498,167.882907133243
83.9794,185.288597376389
84.009,200.056172216616
84.0386,187.311469895732
84.0682,179.559892328401
84.0979,176.287588294652
84.1275,171.413723511603
84.1571,167.198519515482
84.1867,160.195425496135
84.2163,170.78136562395
84.2459,184.46904441454
84.2755,202.49545913219
84.3051,195.320887991924
84.3347,182.569986541051
84.3644,188.992600067272
84.394,194.269424823411
84.4236,227.837146702548
84.4532,278.635721493441
84.4828,278.151362260338
84.5124,260.751009421265
84.542,260.823410696263
84.5716,261.638748738651
84.6012,271.660275815673
84.6309,303.569313593539
84.6605,309.493440968717
84.6901,343.400269088467
84.7197,417.465679676981
84.7493,496.657921291619
84.7789,609.989909182622
84.8085,784.084791386305
84.8381,1074.8059199461
84.8677,1602.80121089816
84.8974,2295.78263795435
84.927,2692.01109989908
84.9566,2335.62495795497
84.9862,1703.51413189783
85.0158,1163.39488731929
85.0454,875.223007063573
85.075,832.080726538841
85.1046,866.787348586786
85.1342,1087.0733266061
85.1639,1344.78069290279
85.1935,1444.3697846568
85.2231,1189.3047426842
85.2527,886.71476622941
85.2823,599.677658142643
85.3119,444.691557349457
85.3415,356.276488395562
85.3711,300.871467025581
85.4007,252.099562731249
85.4304,237.127480659268
85.46,224.057537012113
85.4896,204.25967036663
85.5192,192.823410696267
85.5488,199.863391655454
85.5784,199.164816683481
85.608,164.140262361248
85.6376,169.397578203832
85.6672,159.759084791386
85.6968,168.222670702999
85.7265,182.289942818699
85.7561,165.563930013459
85.7857,163.029263370336
85.8153,169.360242179611
85.8449,138
85.8745,138.453414059872
85.9041,136.220316178944
85.9337,126.052489905789
85.9633,141.706357214937
85.993,163.045408678102
86.0226,167.569313593533
86.0522,132.703666330313
86.0818,153.601749075011
86.1114,160.476286579215
86.141,149.254710632572
86.1706,158.878237470571
86.2002,137.340396905483
86.2298,123.680013458948
86.2595,141.160107635391
86.2891,162.396569122101
86.3187,149.153768506057
86.3483,149.789438277831
86.3779,171.588294651866
86.4075,155.714333781964
86.4371,140.590312815337
86.4667,155.443995963672
86.4963,159.149394347241
86.526,167.572485704676
86.5556,175.752774974772
86.5852,165.180686406458
86.6148,148.431886982846
86.6444,158.503195425497
86.674,161.392869155736
86.7036,157.117092866756
86.7332,160.034308779009
86.7628,173.175243861417
86.7925,153.337819650063
86.8221,181.517995290953
86.8517,184.313151698618
86.8813,169.759084791386
86.9109,173.821392532801
86.9405,142.51866801211
86.9701,148.985195154777
86.9997,160.858392196433
87.0293,170.631685166498
87.059,166.363391655451
87.0886,170.382441977801
87.1182,161.293306424488
87.1478,151
87.1774,151.721736204579
87.207,163.125126135218
87.2366,147.423814328962
87.2662,156.042732166891
87.2958,156.265052135886
87.3255,139.921291624614
87.3551,187.267833109013
87.3847,136.970736629667
87.4143,136.199125462495
87.4439,144.328398384925
87.4735,159.70332996973
87.5031,142.169525731586
87.5327,155.87617765814
87.5623,139.944500504542
87.592,125.059199461826
87.6216,146.963000336363
87.6512,155.948519515478
87.6808,149.070635721493
87.7104,160.82643794147
87.74,150.20719811638
87.7696,140.228802153433
87.7992,164.318869828454
87.8288,154.347796838212
87.8585,157.870794078062
87.8881,160.890010090817
87.9177,174.425496131851
87.9473,196.008075370123
87.9769,166.582240161453
88.0065,171.623276152034
88.0361,202.148048452225
88.0657,189.933400605448
88.0953,195.533804238145
88.125,213.721399730818
88.1546,215.928355196771
88.1842,228.011772620248
88.2138,211.527413387152
88.2434,237.466352624497
88.273,301.961654894061
88.3026,308.906828119744
88.3322,336.98553162854
88.3618,376.83518331651
88.3915,456.3824419778
88.4211,660.640982503378
88.4507,863.578203834511
88.4803,1254.00538176918
88.5099,1896.37247644682
88.5395,2474.69256643119
88.5691,2408.99192734613
88.5987,1765.94414535681
88.6283,1270.36495122765
88.6579,948.421459804938
88.6876,772.098250336481
88.7172,738.043726875212
88.7468,837.107971745693
88.7764,1026.59064917592
88.806,1239.69582772548
88.8356,1440.53615876217
88.8652,1148.32795156403
88.8948,813.770524899076
88.9244,551.979145644187
88.9541,432.277161116737
88.9837,298.886271870792
89.0133,309.659939455108
89.0429,266.141271442988
89.0725,249.162853297442
89.1021,227.952909519009
89.1317,190.302051799523
89.1613,195.48788694482
89.1909,187.952573158429
89.2206,173.966700302728
89.2502,168.648839556004
89.2798,175.796096904443
89.3094,150.088799192741
89.339,185.172552976788
89.3686,180.363055181702
89.3982,156.69929364278
89.4278,160.856037672386
89.4574,150.42732166891
89.4871,169.346451395892
89.5167,184.487386478306
89.5463,164.661507402426
89.5759,157.740329633367
89.6055,178.606794483686
89.6351,176.486204576046
89.6647,190.461150353176
89.6943,173.135216952568
89.7239,155.37146702557
89.7536,152.718129835183
89.7832,148.717457114026
89.8128,155.512613521695
89.8424,160.410497981157
89.872,149.784392869157
89.9016,161.718466195764
89.9312,147.533647375512
89.9608,130.429868819377
89.9904,155.720484359238
